# rshift,intensity
80.239390,0.274221
80.551361,0.274222
80.863333,0.274223
81.175305,0.274224
81.487277,0.274224
81.799249,0.274225
82.111221,0.274226
82.423193,0.274227
82.735165,0.274227
83.047137,0.274228
83.359109,0.274229
83.671081,0.274230
83.983053,0.274231
84.295025,0.274231
84.606996,0.274232
84.918968,0.274233
85.230940,0.274234
85.542912,0.274235
85.854884,0.274235
86.166856,0.274236
86.478828,0.274237
86.790800,0.274238
87.102772,0.274239
87.414744,0.274239
87.726716,0.274240
88.038688,0.274241
88.350660,0.274242
88.662631,0.274243
88.974603,0.274244
89.286575,0.274244
89.598547,0.274245
89.910519,0.274246
90.222491,0.274247
90.534463,0.274248
90.846435,0.274249
91.158407,0.274249
91.470379,0.274250
91.782351,0.274251
92.094323,0.274252
92.406295,0.274253
92.718266,0.274254
93.030238,0.274254
93.342210,0.274255
93.654182,0.274256
93.966154,0.274257
94.278126,0.274258
94.590098,0.274259
94.902070,0.274260
95.214042,0.274260
95.526014,0.274261
95.837986,0.274262
96.149958,0.274263
96.461930,0.274264
96.773901,0.274265
97.085873,0.274266
97.397845,0.274267
97.709817,0.274267
98.021789,0.274268
98.333761,0.274269
98.645733,0.274270
98.957705,0.274271
99.269677,0.274272
99.581649,0.274273
99.893621,0.274274
100.205593,0.274275
100.517565,0.274276
100.829536,0.274276
101.141508,0.274277
101.453480,0.274278
101.765452,0.274279
102.077424,0.274280
102.389396,0.274281
102.701368,0.274282
103.013340,0.274283
103.325312,0.274284
103.637284,0.274285
103.949256,0.274286
104.261228,0.274287
104.573200,0.274287
104.885171,0.274288
105.197143,0.274289
105.509115,0.274290
105.821087,0.274291
106.133059,0.274292
106.445031,0.274293
106.757003,0.274294
107.068975,0.274295
107.380947,0.274296
107.692919,0.274297
108.004891,0.274298
108.316863,0.274299
108.628835,0.274300
108.940806,0.274301
109.252778,0.274302
109.564750,0.274303
109.876722,0.274304
110.188694,0.274305
110.500666,0.274306
110.812638,0.274307
111.124610,0.274308
111.436582,0.274309
111.748554,0.274310
112.060526,0.274311
112.372498,0.274312
112.684470,0.274313
112.996441,0.274314
113.308413,0.274315
113.620385,0.274316
113.932357,0.274317
114.244329,0.274318
114.556301,0.274319
114.868273,0.274320
115.180245,0.274321
115.492217,0.274322
115.804189,0.274323
116.116161,0.274324
116.428133,0.274325
116.740104,0.274326
117.052076,0.274327
117.364048,0.274328
117.676020,0.274329
117.987992,0.274330
118.299964,0.274331
118.611936,0.274332
118.923908,0.274333
119.235880,0.274334
119.547852,0.274335
119.859824,0.274336
120.171796,0.274337
120.483768,0.274339
120.795739,0.274340
121.107711,0.274341
121.419683,0.274342
121.731655,0.274343
122.043627,0.274344
122.355599,0.274345
122.667571,0.274346
122.979543,0.274347
123.291515,0.274348
123.603487,0.274349
123.915459,0.274350
124.227431,0.274352
124.539403,0.274353
124.851374,0.274354
125.163346,0.274355
125.475318,0.274356
125.787290,0.274357
126.099262,0.274358
126.411234,0.274359
126.723206,0.274361
127.035178,0.274362
127.347150,0.274363
127.659122,0.274364
127.971094,0.274365
128.283066,0.274366
128.595038,0.274367
128.907009,0.274369
129.218981,0.274370
129.530953,0.274371
129.842925,0.274372
130.154897,0.274373
130.466869,0.274374
130.778841,0.274375
131.090813,0.274377
131.402785,0.274378
131.714757,0.274379
132.026729,0.274380
132.338701,0.274381
132.650673,0.274383
132.962644,0.274384
133.274616,0.274385
133.586588,0.274386
133.898560,0.274387
134.210532,0.274389
134.522504,0.274390
134.834476,0.274391
135.146448,0.274392
135.458420,0.274393
135.770392,0.274395
136.082364,0.274396
136.394336,0.274397
136.706308,0.274398
137.018279,0.274400
137.330251,0.274401
137.642223,0.274402
137.954195,0.274403
138.266167,0.274405
138.578139,0.274406
138.890111,0.274407
139.202083,0.274408
139.514055,0.274410
139.826027,0.274411
140.137999,0.274412
140.449971,0.274413
140.761943,0.274415
141.073914,0.274416
141.385886,0.274417
141.697858,0.274419
142.009830,0.274420
142.321802,0.274421
142.633774,0.274423
142.945746,0.274424
143.257718,0.274425
143.569690,0.274426
143.881662,0.274428
144.193634,0.274429
144.505606,0.274430
144.817578,0.274432
145.129549,0.274433
145.441521,0.274434
145.753493,0.274436
146.065465,0.274437
146.377437,0.274438
146.689409,0.274440
147.001381,0.274441
147.313353,0.274443
147.625325,0.274444
147.937297,0.274445
148.249269,0.274447
148.561241,0.274448
148.873213,0.274449
149.185184,0.274451
149.497156,0.274452
149.809128,0.274454
150.121100,0.274455
150.433072,0.274456
150.745044,0.274458
151.057016,0.274459
151.368988,0.274461
151.680960,0.274462
151.992932,0.274464
152.304904,0.274465
152.616876,0.274466
152.928848,0.274468
153.240819,0.274469
153.552791,0.274471
153.864763,0.274472
154.176735,0.274474
154.488707,0.274475
154.800679,0.274477
155.112651,0.274478
155.424623,0.274479
155.736595,0.274481
156.048567,0.274482
156.360539,0.274484
156.672511,0.274485
156.984483,0.274487
157.296454,0.274488
157.608426,0.274490
157.920398,0.274491
158.232370,0.274493
158.544342,0.274494
158.856314,0.274496
159.168286,0.274498
159.480258,0.274499
159.792230,0.274501
160.104202,0.274502
160.416174,0.274504
160.728146,0.274505
161.040118,0.274507
161.352089,0.274508
161.664061,0.274510
161.976033,0.274512
162.288005,0.274513
162.599977,0.274515
162.911949,0.274516
163.223921,0.274518
163.535893,0.274519
163.847865,0.274521
164.159837,0.274523
164.471809,0.274524
164.783781,0.274526
165.095753,0.274528
165.407724,0.274529
165.719696,0.274531
166.031668,0.274532
166.343640,0.274534
166.655612,0.274536
166.967584,0.274537
167.279556,0.274539
167.591528,0.274541
167.903500,0.274542
168.215472,0.274544
168.527444,0.274546
168.839416,0.274547
169.151388,0.274549
169.463359,0.274551
169.775331,0.274553
170.087303,0.274554
170.399275,0.274556
170.711247,0.274558
171.023219,0.274559
171.335191,0.274561
171.647163,0.274563
171.959135,0.274565
172.271107,0.274566
172.583079,0.274568
172.895051,0.274570
173.207023,0.274572
173.518994,0.274573
173.830966,0.274575
174.142938,0.274577
174.454910,0.274579
174.766882,0.274581
175.078854,0.274582
175.390826,0.274584
175.702798,0.274586
176.014770,0.274588
176.326742,0.274590
176.638714,0.274591
176.950686,0.274593
177.262658,0.274595
177.574629,0.274597
177.886601,0.274599
178.198573,0.274601
178.510545,0.274603
178.822517,0.274604
179.134489,0.274606
179.446461,0.274608
179.758433,0.274610
180.070405,0.274612
180.382377,0.274614
180.694349,0.274616
181.006321,0.274618
181.318293,0.274620
181.630264,0.274622
181.942236,0.274624
182.254208,0.274626
182.566180,0.274627
182.878152,0.274629
183.190124,0.274631
183.502096,0.274633
183.814068,0.274635
184.126040,0.274637
184.438012,0.274639
184.749984,0.274641
185.061956,0.274643
185.373928,0.274645
185.685899,0.274647
185.997871,0.274649
186.309843,0.274651
186.621815,0.274653
186.933787,0.274655
187.245759,0.274658
187.557731,0.274660
187.869703,0.274662
188.181675,0.274664
188.493647,0.274666
188.805619,0.274668
189.117591,0.274670
189.429563,0.274672
189.741534,0.274674
190.053506,0.274676
190.365478,0.274678
190.677450,0.274681
190.989422,0.274683
191.301394,0.274685
191.613366,0.274687
191.925338,0.274689
192.237310,0.274691
192.549282,0.274694
192.861254,0.274696
193.173226,0.274698
193.485198,0.274700
193.797169,0.274702
194.109141,0.274705
194.421113,0.274707
194.733085,0.274709
195.045057,0.274711
195.357029,0.274714
195.669001,0.274716
195.980973,0.274718
196.292945,0.274720
196.604917,0.274723
196.916889,0.274725
197.228861,0.274727
197.540833,0.274730
197.852804,0.274732
198.164776,0.274734
198.476748,0.274737
198.788720,0.274739
199.100692,0.274741
199.412664,0.274744
199.724636,0.274746
200.036608,0.274748
200.348580,0.274751
200.660552,0.274753
200.972524,0.274756
201.284496,0.274758
201.596468,0.274760
201.908439,0.274763
202.220411,0.274765
202.532383,0.274768
202.844355,0.274770
203.156327,0.274773
203.468299,0.274775
203.780271,0.274778
204.092243,0.274780
204.404215,0.274783
204.716187,0.274785
205.028159,0.274788
205.340131,0.274790
205.652103,0.274793
205.964074,0.274795
206.276046,0.274798
206.588018,0.274800
206.899990,0.274803
207.211962,0.274806
207.523934,0.274808
207.835906,0.274811
208.147878,0.274813
208.459850,0.274816
208.771822,0.274819
209.083794,0.274821
209.395766,0.274824
209.707738,0.274827
210.019709,0.274829
210.331681,0.274832
210.643653,0.274835
210.955625,0.274837
211.267597,0.274840
211.579569,0.274843
211.891541,0.274846
212.203513,0.274848
212.515485,0.274851
212.827457,0.274854
213.139429,0.274857
213.451401,0.274859
213.763373,0.274862
214.075344,0.274865
214.387316,0.274868
214.699288,0.274871
215.011260,0.274874
215.323232,0.274876
215.635204,0.274879
215.947176,0.274882
216.259148,0.274885
216.571120,0.274888
216.883092,0.274891
217.195064,0.274894
217.507036,0.274897
217.819008,0.274900
218.130979,0.274903
218.442951,0.274906
218.754923,0.274909
219.066895,0.274912
219.378867,0.274915
219.690839,0.274918
220.002811,0.274921
220.314783,0.274924
220.626755,0.274927
220.938727,0.274930
221.250699,0.274933
221.562671,0.274936
221.874643,0.274939
222.186614,0.274942
222.498586,0.274945
222.810558,0.274949
223.122530,0.274952
223.434502,0.274955
223.746474,0.274958
224.058446,0.274961
224.370418,0.274965
224.682390,0.274968
224.994362,0.274971
225.306334,0.274974
225.618306,0.274978
225.930278,0.274981
226.242249,0.274984
226.554221,0.274987
226.866193,0.274991
227.178165,0.274994
227.490137,0.274997
227.802109,0.275001
228.114081,0.275004
228.426053,0.275008
228.738025,0.275011
229.049997,0.275014
229.361969,0.275018
229.673941,0.275021
229.985913,0.275025
230.297884,0.275028
230.609856,0.275032
230.921828,0.275035
231.233800,0.275039
231.545772,0.275042
231.857744,0.275046
232.169716,0.275049
232.481688,0.275053
232.793660,0.275057
233.105632,0.275060
233.417604,0.275064
233.729576,0.275067
234.041548,0.275071
234.353519,0.275075
234.665491,0.275079
234.977463,0.275082
235.289435,0.275086
235.601407,0.275090
235.913379,0.275093
236.225351,0.275097
236.537323,0.275101
236.849295,0.275105
237.161267,0.275109
237.473239,0.275112
237.785211,0.275116
238.097183,0.275120
238.409154,0.275124
238.721126,0.275128
239.033098,0.275132
239.345070,0.275136
239.657042,0.275140
239.969014,0.275144
240.280986,0.275148
240.592958,0.275152
240.904930,0.275156
241.216902,0.275160
241.528874,0.275164
241.840846,0.275168
242.152817,0.275172
242.464789,0.275176
242.776761,0.275180
243.088733,0.275185
243.400705,0.275189
243.712677,0.275193
244.024649,0.275197
244.336621,0.275201
244.648593,0.275206
244.960565,0.275210
245.272537,0.275214
245.584509,0.275219
245.896481,0.275223
246.208452,0.275227
246.520424,0.275232
246.832396,0.275236
247.144368,0.275240
247.456340,0.275245
247.768312,0.275249
248.080284,0.275254
248.392256,0.275258
248.704228,0.275263
249.016200,0.275267
249.328172,0.275272
249.640144,0.275277
249.952116,0.275281
250.264087,0.275286
250.576059,0.275290
250.888031,0.275295
251.200003,0.275300
251.511975,0.275304
251.823947,0.275309
252.135919,0.275314
252.447891,0.275319
252.759863,0.275324
253.071835,0.275328
253.383807,0.275333
253.695779,0.275338
254.007751,0.275343
254.319722,0.275348
254.631694,0.275353
254.943666,0.275358
255.255638,0.275363
255.567610,0.275368
255.879582,0.275373
256.191554,0.275378
256.503526,0.275383
256.815498,0.275388
257.127470,0.275393
257.439442,0.275398
257.751414,0.275404
258.063386,0.275409
258.375357,0.275414
258.687329,0.275419
258.999301,0.275425
259.311273,0.275430
259.623245,0.275435
259.935217,0.275441
260.247189,0.275446
260.559161,0.275452
260.871133,0.275457
261.183105,0.275462
261.495077,0.275468
261.807049,0.275474
262.119021,0.275479
262.430992,0.275485
262.742964,0.275490
263.054936,0.275496
263.366908,0.275502
263.678880,0.275507
263.990852,0.275513
264.302824,0.275519
264.614796,0.275525
264.926768,0.275530
265.238740,0.275536
265.550712,0.275542
265.862684,0.275548
266.174656,0.275554
266.486627,0.275560
266.798599,0.275566
267.110571,0.275572
267.422543,0.275578
267.734515,0.275584
268.046487,0.275590
268.358459,0.275597
268.670431,0.275603
268.982403,0.275609
269.294375,0.275615
269.606347,0.275622
269.918319,0.275628
270.230291,0.275634
270.542262,0.275641
270.854234,0.275647
271.166206,0.275654
271.478178,0.275660
271.790150,0.275667
272.102122,0.275673
272.414094,0.275680
272.726066,0.275687
273.038038,0.275693
273.350010,0.275700
273.661982,0.275707
273.973954,0.275713
274.285926,0.275720
274.597897,0.275727
274.909869,0.275734
275.221841,0.275741
275.533813,0.275748
275.845785,0.275755
276.157757,0.275762
276.469729,0.275769
276.781701,0.275776
277.093673,0.275784
277.405645,0.275791
277.717617,0.275798
278.029589,0.275805
278.341561,0.275813
278.653532,0.275820
278.965504,0.275827
279.277476,0.275835
279.589448,0.275842
279.901420,0.275850
280.213392,0.275858
280.525364,0.275865
280.837336,0.275873
281.149308,0.275881
281.461280,0.275888
281.773252,0.275896
282.085224,0.275904
282.397196,0.275912
282.709167,0.275920
283.021139,0.275928
283.333111,0.275936
283.645083,0.275944
283.957055,0.275952
284.269027,0.275960
284.580999,0.275969
284.892971,0.275977
285.204943,0.275985
285.516915,0.275994
285.828887,0.276002
286.140859,0.276010
286.452831,0.276019
286.764802,0.276028
287.076774,0.276036
287.388746,0.276045
287.700718,0.276054
288.012690,0.276062
288.324662,0.276071
288.636634,0.276080
288.948606,0.276089
289.260578,0.276098
289.572550,0.276107
289.884522,0.276116
290.196494,0.276125
290.508466,0.276135
290.820437,0.276144
291.132409,0.276153
291.444381,0.276163
291.756353,0.276172
292.068325,0.276182
292.380297,0.276191
292.692269,0.276201
293.004241,0.276210
293.316213,0.276220
293.628185,0.276230
293.940157,0.276240
294.252129,0.276250
294.564101,0.276260
294.876072,0.276270
295.188044,0.276280
295.500016,0.276290
295.811988,0.276300
296.123960,0.276311
296.435932,0.276321
296.747904,0.276332
297.059876,0.276342
297.371848,0.276353
297.683820,0.276363
297.995792,0.276374
298.307764,0.276385
298.619736,0.276396
298.931707,0.276407
299.243679,0.276418
299.555651,0.276429
299.867623,0.276440
300.179595,0.276451
300.491567,0.276463
300.803539,0.276474
301.115511,0.276485
301.427483,0.276497
301.739455,0.276508
302.051427,0.276520
302.363399,0.276532
302.675371,0.276544
302.987342,0.276556
303.299314,0.276568
303.611286,0.276580
303.923258,0.276592
304.235230,0.276604
304.547202,0.276617
304.859174,0.276629
305.171146,0.276641
305.483118,0.276654
305.795090,0.276667
306.107062,0.276679
306.419034,0.276692
306.731006,0.276705
307.042977,0.276718
307.354949,0.276731
307.666921,0.276745
307.978893,0.276758
308.290865,0.276771
308.602837,0.276785
308.914809,0.276798
309.226781,0.276812
309.538753,0.276826
309.850725,0.276840
310.162697,0.276854
310.474669,0.276868
310.786641,0.276882
311.098612,0.276896
311.410584,0.276911
311.722556,0.276925
312.034528,0.276940
312.346500,0.276955
312.658472,0.276969
312.970444,0.276984
313.282416,0.276999
313.594388,0.277015
313.906360,0.277030
314.218332,0.277045
314.530304,0.277061
314.842276,0.277076
315.154247,0.277092
315.466219,0.277108
315.778191,0.277124
316.090163,0.277140
316.402135,0.277156
316.714107,0.277173
317.026079,0.277189
317.338051,0.277206
317.650023,0.277222
317.961995,0.277239
318.273967,0.277256
318.585939,0.277273
318.897911,0.277290
319.209882,0.277308
319.521854,0.277325
319.833826,0.277343
320.145798,0.277361
320.457770,0.277379
320.769742,0.277397
321.081714,0.277415
321.393686,0.277433
321.705658,0.277452
322.017630,0.277470
322.329602,0.277489
322.641574,0.277508
322.953546,0.277527
323.265517,0.277547
323.577489,0.277566
323.889461,0.277586
324.201433,0.277605
324.513405,0.277625
324.825377,0.277645
325.137349,0.277665
325.449321,0.277686
325.761293,0.277706
326.073265,0.277727
326.385237,0.277748
326.697209,0.277769
327.009181,0.277790
327.321152,0.277812
327.633124,0.277833
327.945096,0.277855
328.257068,0.277877
328.569040,0.277899
328.881012,0.277922
329.192984,0.277944
329.504956,0.277967
329.816928,0.277990
330.128900,0.278013
330.440872,0.278036
330.752844,0.278060
331.064816,0.278084
331.376787,0.278108
331.688759,0.278132
332.000731,0.278156
332.312703,0.278181
332.624675,0.278206
332.936647,0.278231
333.248619,0.278256
333.560591,0.278282
333.872563,0.278307
334.184535,0.278333
334.496507,0.278360
334.808479,0.278386
335.120451,0.278413
335.432422,0.278440
335.744394,0.278467
336.056366,0.278494
336.368338,0.278522
336.680310,0.278550
336.992282,0.278578
337.304254,0.278607
337.616226,0.278635
337.928198,0.278664
338.240170,0.278694
338.552142,0.278723
338.864114,0.278753
339.176086,0.278783
339.488057,0.278814
339.800029,0.278844
340.112001,0.278875
340.423973,0.278907
340.735945,0.278938
341.047917,0.278970
341.359889,0.279002
341.671861,0.279035
341.983833,0.279068
342.295805,0.279101
342.607777,0.279135
342.919749,0.279169
343.231721,0.279203
343.543692,0.279237
343.855664,0.279272
344.167636,0.279308
344.479608,0.279343
344.791580,0.279379
345.103552,0.279416
345.415524,0.279452
345.727496,0.279489
346.039468,0.279527
346.351440,0.279565
346.663412,0.279603
346.975384,0.279642
347.287356,0.279681
347.599327,0.279721
347.911299,0.279761
348.223271,0.279801
348.535243,0.279842
348.847215,0.279883
349.159187,0.279925
349.471159,0.279967
349.783131,0.280010
350.095103,0.280053
350.407075,0.280096
350.719047,0.280140
351.031019,0.280185
351.342991,0.280230
351.654962,0.280275
351.966934,0.280321
352.278906,0.280368
352.590878,0.280415
352.902850,0.280463
353.214822,0.280511
353.526794,0.280560
353.838766,0.280609
354.150738,0.280659
354.462710,0.280709
354.774682,0.280760
355.086654,0.280812
355.398626,0.280864
355.710597,0.280917
356.022569,0.280970
356.334541,0.281025
356.646513,0.281079
356.958485,0.281135
357.270457,0.281191
357.582429,0.281248
357.894401,0.281305
358.206373,0.281363
358.518345,0.281422
358.830317,0.281482
359.142289,0.281542
359.454261,0.281603
359.766232,0.281665
360.078204,0.281728
360.390176,0.281791
360.702148,0.281855
361.014120,0.281921
361.326092,0.281986
361.638064,0.282053
361.950036,0.282121
362.262008,0.282189
362.573980,0.282259
362.885952,0.282329
363.197924,0.282400
363.509896,0.282472
363.821867,0.282546
364.133839,0.282620
364.445811,0.282695
364.757783,0.282771
365.069755,0.282848
365.381727,0.282926
365.693699,0.283006
366.005671,0.283086
366.317643,0.283168
366.629615,0.283250
366.941587,0.283334
367.253559,0.283419
367.565530,0.283505
367.877502,0.283593
368.189474,0.283681
368.501446,0.283771
368.813418,0.283863
369.125390,0.283955
369.437362,0.284049
369.749334,0.284144
370.061306,0.284241
370.373278,0.284339
370.685250,0.284439
370.997222,0.284540
371.309194,0.284643
371.621165,0.284747
371.933137,0.284853
372.245109,0.284960
372.557081,0.285069
372.869053,0.285180
373.181025,0.285292
373.492997,0.285406
373.804969,0.285523
374.116941,0.285640
374.428913,0.285760
374.740885,0.285882
375.052857,0.286005
375.364829,0.286131
375.676800,0.286259
375.988772,0.286389
376.300744,0.286521
376.612716,0.286655
376.924688,0.286791
377.236660,0.286930
377.548632,0.287071
377.860604,0.287214
378.172576,0.287360
378.484548,0.287509
378.796520,0.287660
379.108492,0.287813
379.420464,0.287970
379.732435,0.288129
380.044407,0.288291
380.356379,0.288455
380.668351,0.288623
380.980323,0.288794
381.292295,0.288968
381.604267,0.289145
381.916239,0.289325
382.228211,0.289509
382.540183,0.289696
382.852155,0.289887
383.164127,0.290082
383.476099,0.290280
383.788070,0.290482
384.100042,0.290687
384.412014,0.290897
384.723986,0.291111
385.035958,0.291329
385.347930,0.291552
385.659902,0.291779
385.971874,0.292011
386.283846,0.292247
386.595818,0.292488
386.907790,0.292734
387.219762,0.292985
387.531734,0.293242
387.843705,0.293504
388.155677,0.293771
388.467649,0.294045
388.779621,0.294324
389.091593,0.294609
389.403565,0.294901
389.715537,0.295198
390.027509,0.295503
390.339481,0.295814
390.651453,0.296133
390.963425,0.296459
391.275397,0.296792
391.587369,0.297133
391.899340,0.297482
392.211312,0.297839
392.523284,0.298204
