# rshift,intensity
80.543123,0.266716
80.855713,0.266717
81.168303,0.266718
81.480893,0.266718
81.793483,0.266719
82.106073,0.266720
82.418663,0.266721
82.731253,0.266722
83.043843,0.266722
83.356433,0.266723
83.669023,0.266724
83.981613,0.266725
84.294203,0.266726
84.606793,0.266726
84.919383,0.266727
85.231973,0.266728
85.544563,0.266729
85.857153,0.266730
86.169743,0.266730
86.482333,0.266731
86.794923,0.266732
87.107513,0.266733
87.420103,0.266734
87.732693,0.266734
88.045283,0.266735
88.357873,0.266736
88.670463,0.266737
88.983053,0.266738
89.295643,0.266739
89.608233,0.266739
89.920823,0.266740
90.233413,0.266741
90.546003,0.266742
90.858593,0.266743
91.171183,0.266744
91.483773,0.266745
91.796363,0.266745
92.108953,0.266746
92.421543,0.266747
92.734133,0.266748
93.046723,0.266749
93.359313,0.266750
93.671903,0.266751
93.984493,0.266751
94.297083,0.266752
94.609673,0.266753
94.922263,0.266754
95.234853,0.266755
95.547443,0.266756
95.860033,0.266757
96.172623,0.266757
96.485213,0.266758
96.797803,0.266759
97.110393,0.266760
97.422983,0.266761
97.735573,0.266762
98.048163,0.266763
98.360753,0.266764
98.673343,0.266765
98.985933,0.266766
99.298523,0.266766
99.611113,0.266767
99.923703,0.266768
100.236293,0.266769
100.548883,0.266770
100.861473,0.266771
101.174063,0.266772
101.486653,0.266773
101.799243,0.266774
102.111833,0.266775
102.424423,0.266776
102.737013,0.266777
103.049603,0.266777
103.362193,0.266778
103.674783,0.266779
103.987373,0.266780
104.299963,0.266781
104.612553,0.266782
104.925143,0.266783
105.237733,0.266784
105.550323,0.266785
105.862913,0.266786
106.175503,0.266787
106.488093,0.266788
106.800683,0.266789
107.113273,0.266790
107.425863,0.266791
107.738453,0.266792
108.051043,0.266793
108.363633,0.266794
108.676223,0.266795
108.988813,0.266796
109.301403,0.266797
109.613993,0.266798
109.926583,0.266799
110.239173,0.266800
110.551763,0.266801
110.864353,0.266802
111.176943,0.266803
111.489533,0.266804
111.802123,0.266805
112.114713,0.266806
112.427303,0.266807
112.739893,0.266808
113.052483,0.266809
113.365073,0.266810
113.677663,0.266811
113.990253,0.266812
114.302843,0.266813
114.615433,0.266814
114.928023,0.266815
115.240613,0.266816
115.553203,0.266817
115.865793,0.266818
116.178383,0.266819
116.490973,0.266820
116.803563,0.266821
117.116153,0.266822
117.428743,0.266823
117.741333,0.266824
118.053923,0.266825
118.366513,0.266826
118.679103,0.266827
118.991693,0.266828
119.304283,0.266829
119.616873,0.266831
119.929463,0.266832
120.242053,0.266833
120.554643,0.266834
120.867233,0.266835
121.179822,0.266836
121.492412,0.266837
121.805002,0.266838
122.117592,0.266839
122.430182,0.266840
122.742772,0.266841
123.055362,0.266843
123.367952,0.266844
123.680542,0.266845
123.993132,0.266846
124.305722,0.266847
124.618312,0.266848
124.930902,0.266849
125.243492,0.266850
125.556082,0.266852
125.868672,0.266853
126.181262,0.266854
126.493852,0.266855
126.806442,0.266856
127.119032,0.266857
127.431622,0.266858
127.744212,0.266860
128.056802,0.266861
128.369392,0.266862
128.681982,0.266863
128.994572,0.266864
129.307162,0.266865
129.619752,0.266867
129.932342,0.266868
130.244932,0.266869
130.557522,0.266870
130.870112,0.266871
131.182702,0.266872
131.495292,0.266874
131.807882,0.266875
132.120472,0.266876
132.433062,0.266877
132.745652,0.266878
133.058242,0.266880
133.370832,0.266881
133.683422,0.266882
133.996012,0.266883
134.308602,0.266885
134.621192,0.266886
134.933782,0.266887
135.246372,0.266888
135.558962,0.266889
135.871552,0.266891
136.184142,0.266892
136.496732,0.266893
136.809322,0.266894
137.121912,0.266896
137.434502,0.266897
137.747092,0.266898
138.059682,0.266899
138.372272,0.266901
138.684862,0.266902
138.997452,0.266903
139.310042,0.266905
139.622632,0.266906
139.935222,0.266907
140.247812,0.266908
140.560402,0.266910
140.872992,0.266911
141.185582,0.266912
141.498172,0.266914
141.810762,0.266915
142.123352,0.266916
142.435942,0.266918
142.748532,0.266919
143.061122,0.266920
143.373712,0.266922
143.686302,0.266923
143.998892,0.266924
144.311482,0.266926
144.624072,0.266927
144.936662,0.266928
145.249252,0.266930
145.561842,0.266931
145.874432,0.266932
146.187022,0.266934
146.499612,0.266935
146.812202,0.266936
147.124792,0.266938
147.437382,0.266939
147.749972,0.266941
148.062562,0.266942
148.375152,0.266943
148.687742,0.266945
149.000332,0.266946
149.312922,0.266948
149.625512,0.266949
149.938102,0.266950
150.250692,0.266952
150.563282,0.266953
150.875872,0.266955
151.188462,0.266956
151.501052,0.266958
151.813642,0.266959
152.126232,0.266961
152.438822,0.266962
152.751412,0.266963
153.064002,0.266965
153.376592,0.266966
153.689182,0.266968
154.001772,0.266969
154.314362,0.266971
154.626952,0.266972
154.939542,0.266974
155.252132,0.266975
155.564722,0.266977
155.877312,0.266978
156.189902,0.266980
156.502492,0.266981
156.815082,0.266983
157.127672,0.266984
157.440262,0.266986
157.752852,0.266987
158.065442,0.266989
158.378032,0.266990
158.690622,0.266992
159.003212,0.266994
159.315802,0.266995
159.628392,0.266997
159.940982,0.266998
160.253572,0.267000
160.566162,0.267001
160.878752,0.267003
161.191342,0.267004
161.503932,0.267006
161.816522,0.267008
162.129112,0.267009
162.441702,0.267011
162.754292,0.267012
163.066882,0.267014
163.379472,0.267016
163.692062,0.267017
164.004652,0.267019
164.317242,0.267021
164.629832,0.267022
164.942422,0.267024
165.255012,0.267026
165.567602,0.267027
165.880192,0.267029
166.192782,0.267031
166.505372,0.267032
166.817962,0.267034
167.130552,0.267036
167.443142,0.267037
167.755732,0.267039
168.068322,0.267041
168.380912,0.267042
168.693502,0.267044
169.006092,0.267046
169.318682,0.267047
169.631272,0.267049
169.943862,0.267051
170.256452,0.267053
170.569042,0.267054
170.881632,0.267056
171.194222,0.267058
171.506812,0.267060
171.819402,0.267061
172.131992,0.267063
172.444582,0.267065
172.757172,0.267067
173.069762,0.267069
173.382352,0.267070
173.694942,0.267072
174.007532,0.267074
174.320122,0.267076
174.632712,0.267078
174.945302,0.267079
175.257892,0.267081
175.570482,0.267083
175.883072,0.267085
176.195662,0.267087
176.508252,0.267089
176.820842,0.267091
177.133432,0.267092
177.446022,0.267094
177.758612,0.267096
178.071202,0.267098
178.383792,0.267100
178.696382,0.267102
179.008972,0.267104
179.321562,0.267106
179.634152,0.267108
179.946742,0.267109
180.259332,0.267111
180.571922,0.267113
180.884512,0.267115
181.197102,0.267117
181.509692,0.267119
181.822282,0.267121
182.134872,0.267123
182.447462,0.267125
182.760052,0.267127
183.072642,0.267129
183.385232,0.267131
183.697822,0.267133
184.010412,0.267135
184.323001,0.267137
184.635591,0.267139
184.948181,0.267141
185.260771,0.267143
185.573361,0.267145
185.885951,0.267147
186.198541,0.267149
186.511131,0.267151
186.823721,0.267154
187.136311,0.267156
187.448901,0.267158
187.761491,0.267160
188.074081,0.267162
188.386671,0.267164
188.699261,0.267166
189.011851,0.267168
189.324441,0.267170
189.637031,0.267173
189.949621,0.267175
190.262211,0.267177
190.574801,0.267179
190.887391,0.267181
191.199981,0.267183
191.512571,0.267186
191.825161,0.267188
192.137751,0.267190
192.450341,0.267192
192.762931,0.267194
193.075521,0.267197
193.388111,0.267199
193.700701,0.267201
194.013291,0.267203
194.325881,0.267206
194.638471,0.267208
194.951061,0.267210
195.263651,0.267213
195.576241,0.267215
195.888831,0.267217
196.201421,0.267219
196.514011,0.267222
196.826601,0.267224
197.139191,0.267226
197.451781,0.267229
197.764371,0.267231
198.076961,0.267233
198.389551,0.267236
198.702141,0.267238
199.014731,0.267241
199.327321,0.267243
199.639911,0.267245
199.952501,0.267248
200.265091,0.267250
200.577681,0.267253
200.890271,0.267255
201.202861,0.267258
201.515451,0.267260
201.828041,0.267263
202.140631,0.267265
202.453221,0.267267
202.765811,0.267270
203.078401,0.267272
203.390991,0.267275
203.703581,0.267278
204.016171,0.267280
204.328761,0.267283
204.641351,0.267285
204.953941,0.267288
205.266531,0.267290
205.579121,0.267293
205.891711,0.267295
206.204301,0.267298
206.516891,0.267301
206.829481,0.267303
207.142071,0.267306
207.454661,0.267309
207.767251,0.267311
208.079841,0.267314
208.392431,0.267317
208.705021,0.267319
209.017611,0.267322
209.330201,0.267325
209.642791,0.267327
209.955381,0.267330
210.267971,0.267333
210.580561,0.267336
210.893151,0.267338
211.205741,0.267341
211.518331,0.267344
211.830921,0.267347
212.143511,0.267349
212.456101,0.267352
212.768691,0.267355
213.081281,0.267358
213.393871,0.267361
213.706461,0.267364
214.019051,0.267366
214.331641,0.267369
214.644231,0.267372
214.956821,0.267375
215.269411,0.267378
215.582001,0.267381
215.894591,0.267384
216.207181,0.267387
216.519771,0.267390
216.832361,0.267393
217.144951,0.267396
217.457541,0.267399
217.770131,0.267402
218.082721,0.267405
218.395311,0.267408
218.707901,0.267411
219.020491,0.267414
219.333081,0.267417
219.645671,0.267420
219.958261,0.267423
220.270851,0.267426
220.583441,0.267429
220.896031,0.267433
221.208621,0.267436
221.521211,0.267439
221.833801,0.267442
222.146391,0.267445
222.458981,0.267448
222.771571,0.267452
223.084161,0.267455
223.396751,0.267458
223.709341,0.267461
224.021931,0.267465
224.334521,0.267468
224.647111,0.267471
224.959701,0.267474
225.272291,0.267478
225.584881,0.267481
225.897471,0.267484
226.210061,0.267488
226.522651,0.267491
226.835241,0.267494
227.147831,0.267498
227.460421,0.267501
227.773011,0.267505
228.085601,0.267508
228.398191,0.267512
228.710781,0.267515
229.023371,0.267519
229.335961,0.267522
229.648551,0.267526
229.961141,0.267529
230.273731,0.267533
230.586321,0.267536
230.898911,0.267540
231.211501,0.267543
231.524091,0.267547
231.836681,0.267551
232.149271,0.267554
232.461861,0.267558
232.774451,0.267562
233.087041,0.267565
233.399631,0.267569
233.712221,0.267573
234.024811,0.267576
234.337401,0.267580
234.649991,0.267584
234.962581,0.267588
235.275171,0.267592
235.587761,0.267595
235.900351,0.267599
236.212941,0.267603
236.525531,0.267607
236.838121,0.267611
237.150711,0.267615
237.463301,0.267619
237.775891,0.267623
238.088481,0.267626
238.401071,0.267630
238.713661,0.267634
239.026251,0.267638
239.338841,0.267642
239.651431,0.267647
239.964021,0.267651
240.276611,0.267655
240.589201,0.267659
240.901791,0.267663
241.214381,0.267667
241.526971,0.267671
241.839561,0.267675
242.152151,0.267680
242.464741,0.267684
242.777331,0.267688
243.089921,0.267692
243.402511,0.267696
243.715101,0.267701
244.027691,0.267705
244.340281,0.267709
244.652871,0.267714
244.965461,0.267718
245.278051,0.267722
245.590641,0.267727
245.903231,0.267731
246.215821,0.267736
246.528411,0.267740
246.841001,0.267745
247.153591,0.267749
247.466180,0.267754
247.778770,0.267758
248.091360,0.267763
248.403950,0.267768
248.716540,0.267772
249.029130,0.267777
249.341720,0.267781
249.654310,0.267786
249.966900,0.267791
250.279490,0.267796
250.592080,0.267800
250.904670,0.267805
251.217260,0.267810
251.529850,0.267815
251.842440,0.267820
252.155030,0.267824
252.467620,0.267829
252.780210,0.267834
253.092800,0.267839
253.405390,0.267844
253.717980,0.267849
254.030570,0.267854
254.343160,0.267859
254.655750,0.267864
254.968340,0.267869
255.280930,0.267874
255.593520,0.267879
255.906110,0.267885
256.218700,0.267890
256.531290,0.267895
256.843880,0.267900
257.156470,0.267906
257.469060,0.267911
257.781650,0.267916
258.094240,0.267921
258.406830,0.267927
258.719420,0.267932
259.032010,0.267938
259.344600,0.267943
259.657190,0.267949
259.969780,0.267954
260.282370,0.267960
260.594960,0.267965
260.907550,0.267971
261.220140,0.267976
261.532730,0.267982
261.845320,0.267988
262.157910,0.267993
262.470500,0.267999
262.783090,0.268005
263.095680,0.268011
263.408270,0.268016
263.720860,0.268022
264.033450,0.268028
264.346040,0.268034
264.658630,0.268040
264.971220,0.268046
265.283810,0.268052
265.596400,0.268058
265.908990,0.268064
266.221580,0.268070
266.534170,0.268076
266.846760,0.268083
267.159350,0.268089
267.471940,0.268095
267.784530,0.268101
268.097120,0.268108
268.409710,0.268114
268.722300,0.268120
269.034890,0.268127
269.347480,0.268133
269.660070,0.268139
269.972660,0.268146
270.285250,0.268153
270.597840,0.268159
270.910430,0.268166
271.223020,0.268172
271.535610,0.268179
271.848200,0.268186
272.160790,0.268192
272.473380,0.268199
272.785970,0.268206
273.098560,0.268213
273.411150,0.268220
273.723740,0.268227
274.036330,0.268234
274.348920,0.268241
274.661510,0.268248
274.974100,0.268255
275.286690,0.268262
275.599280,0.268269
275.911870,0.268276
276.224460,0.268284
276.537050,0.268291
276.849640,0.268298
277.162230,0.268306
277.474820,0.268313
277.787410,0.268320
278.100000,0.268328
278.412590,0.268336
278.725180,0.268343
279.037770,0.268351
279.350360,0.268358
279.662950,0.268366
279.975540,0.268374
280.288130,0.268382
280.600720,0.268390
280.913310,0.268397
281.225900,0.268405
281.538490,0.268413
281.851080,0.268421
282.163670,0.268429
282.476260,0.268438
282.788850,0.268446
283.101440,0.268454
283.414030,0.268462
283.726620,0.268471
284.039210,0.268479
284.351800,0.268487
284.664390,0.268496
284.976980,0.268504
285.289570,0.268513
285.602160,0.268522
285.914750,0.268530
286.227340,0.268539
286.539930,0.268548
286.852520,0.268557
287.165110,0.268565
287.477700,0.268574
287.790290,0.268583
288.102880,0.268592
288.415470,0.268601
288.728060,0.268611
289.040650,0.268620
289.353240,0.268629
289.665830,0.268638
289.978420,0.268648
290.291010,0.268657
290.603600,0.268667
290.916190,0.268676
291.228780,0.268686
291.541370,0.268696
291.853960,0.268705
292.166550,0.268715
292.479140,0.268725
292.791730,0.268735
293.104320,0.268745
293.416910,0.268755
293.729500,0.268765
294.042090,0.268775
294.354680,0.268786
294.667270,0.268796
294.979860,0.268806
295.292450,0.268817
295.605040,0.268827
295.917630,0.268838
296.230220,0.268848
296.542810,0.268859
296.855400,0.268870
297.167990,0.268881
297.480580,0.268892
297.793170,0.268903
298.105760,0.268914
298.418350,0.268925
298.730940,0.268936
299.043530,0.268947
299.356120,0.268959
299.668710,0.268970
299.981300,0.268982
300.293890,0.268993
300.606480,0.269005
300.919070,0.269017
301.231660,0.269029
301.544250,0.269041
301.856840,0.269053
302.169430,0.269065
302.482020,0.269077
302.794610,0.269089
303.107200,0.269101
303.419790,0.269114
303.732380,0.269126
304.044970,0.269139
304.357560,0.269151
304.670150,0.269164
304.982740,0.269177
305.295330,0.269190
305.607920,0.269203
305.920510,0.269216
306.233100,0.269229
306.545690,0.269243
306.858280,0.269256
307.170870,0.269269
307.483460,0.269283
307.796050,0.269297
308.108640,0.269311
308.421230,0.269324
308.733820,0.269338
309.046410,0.269352
309.359000,0.269367
309.671590,0.269381
309.984180,0.269395
310.296770,0.269410
310.609359,0.269424
310.921949,0.269439
311.234539,0.269454
311.547129,0.269469
311.859719,0.269484
312.172309,0.269499
312.484899,0.269514
312.797489,0.269530
313.110079,0.269545
313.422669,0.269561
313.735259,0.269576
314.047849,0.269592
314.360439,0.269608
314.673029,0.269624
314.985619,0.269640
315.298209,0.269657
315.610799,0.269673
315.923389,0.269690
316.235979,0.269707
316.548569,0.269723
316.861159,0.269740
317.173749,0.269757
317.486339,0.269775
317.798929,0.269792
318.111519,0.269809
318.424109,0.269827
318.736699,0.269845
319.049289,0.269863
319.361879,0.269881
319.674469,0.269899
319.987059,0.269917
320.299649,0.269936
320.612239,0.269954
320.924829,0.269973
321.237419,0.269992
321.550009,0.270011
321.862599,0.270030
322.175189,0.270050
322.487779,0.270069
322.800369,0.270089
323.112959,0.270109
323.425549,0.270129
323.738139,0.270149
324.050729,0.270170
324.363319,0.270190
324.675909,0.270211
324.988499,0.270232
325.301089,0.270253
325.613679,0.270274
325.926269,0.270295
326.238859,0.270317
326.551449,0.270339
326.864039,0.270361
327.176629,0.270383
327.489219,0.270405
327.801809,0.270428
328.114399,0.270451
328.426989,0.270473
328.739579,0.270497
329.052169,0.270520
329.364759,0.270543
329.677349,0.270567
329.989939,0.270591
330.302529,0.270615
330.615119,0.270640
330.927709,0.270664
331.240299,0.270689
331.552889,0.270714
331.865479,0.270739
332.178069,0.270765
332.490659,0.270790
332.803249,0.270816
333.115839,0.270843
333.428429,0.270869
333.741019,0.270896
334.053609,0.270923
334.366199,0.270950
334.678789,0.270977
334.991379,0.271005
335.303969,0.271033
335.616559,0.271061
335.929149,0.271089
336.241739,0.271118
336.554329,0.271147
336.866919,0.271176
337.179509,0.271206
337.492099,0.271236
337.804689,0.271266
338.117279,0.271296
338.429869,0.271327
338.742459,0.271358
339.055049,0.271389
339.367639,0.271421
339.680229,0.271453
339.992819,0.271485
340.305409,0.271517
340.617999,0.271550
340.930589,0.271583
341.243179,0.271617
341.555769,0.271651
341.868359,0.271685
342.180949,0.271719
342.493539,0.271754
342.806129,0.271790
343.118719,0.271825
343.431309,0.271861
343.743899,0.271897
344.056489,0.271934
344.369079,0.271971
344.681669,0.272009
344.994259,0.272046
345.306849,0.272085
345.619439,0.272123
345.932029,0.272162
346.244619,0.272202
346.557209,0.272242
346.869799,0.272282
347.182389,0.272323
347.494979,0.272364
347.807569,0.272406
348.120159,0.272448
348.432749,0.272490
348.745339,0.272533
349.057929,0.272577
349.370519,0.272621
349.683109,0.272665
349.995699,0.272710
350.308289,0.272756
350.620879,0.272802
350.933469,0.272848
351.246059,0.272895
351.558649,0.272943
351.871239,0.272991
352.183829,0.273040
352.496419,0.273089
352.809009,0.273139
353.121599,0.273189
353.434189,0.273240
353.746779,0.273291
354.059369,0.273343
354.371959,0.273396
354.684549,0.273450
354.997139,0.273504
355.309729,0.273558
355.622319,0.273614
355.934909,0.273670
356.247499,0.273726
356.560089,0.273784
356.872679,0.273842
357.185269,0.273900
357.497859,0.273960
357.810449,0.274020
358.123039,0.274081
358.435629,0.274143
358.748219,0.274205
359.060809,0.274269
359.373399,0.274333
359.685989,0.274398
359.998579,0.274463
360.311169,0.274530
360.623759,0.274598
360.936349,0.274666
361.248939,0.274735
361.561529,0.274805
361.874119,0.274876
362.186709,0.274948
362.499299,0.275021
362.811889,0.275095
363.124479,0.275170
363.437069,0.275246
363.749659,0.275323
364.062249,0.275401
364.374839,0.275480
364.687429,0.275560
365.000019,0.275642
365.312609,0.275724
365.625199,0.275808
365.937789,0.275892
366.250379,0.275978
366.562969,0.276065
366.875559,0.276154
367.188149,0.276243
367.500739,0.276334
367.813329,0.276427
368.125919,0.276520
368.438509,0.276615
368.751099,0.276712
369.063689,0.276809
369.376279,0.276909
369.688869,0.277009
370.001459,0.277112
370.314049,0.277215
370.626639,0.277321
370.939229,0.277428
371.251819,0.277536
371.564409,0.277647
371.876999,0.277759
372.189589,0.277873
372.502179,0.277988
372.814769,0.278106
373.127359,0.278225
373.439949,0.278346
373.752538,0.278469
374.065128,0.278594
374.377718,0.278721
374.690308,0.278851
375.002898,0.278982
375.315488,0.279116
375.628078,0.279251
375.940668,0.279389
376.253258,0.279530
376.565848,0.279672
376.878438,0.279818
377.191028,0.279965
377.503618,0.280115
377.816208,0.280268
378.128798,0.280424
378.441388,0.280582
378.753978,0.280743
379.066568,0.280907
379.379158,0.281074
379.691748,0.281244
380.004338,0.281417
380.316928,0.281593
380.629518,0.281772
380.942108,0.281955
381.254698,0.282141
381.567288,0.282330
381.879878,0.282523
382.192468,0.282720
382.505058,0.282921
382.817648,0.283125
383.130238,0.283334
383.442828,0.283546
383.755418,0.283763
384.068008,0.283984
384.380598,0.284209
384.693188,0.284439
385.005778,0.284673
385.318368,0.284913
385.630958,0.285157
385.943548,0.285406
386.256138,0.285661
386.568728,0.285921
386.881318,0.286186
387.193908,0.286457
387.506498,0.286734
387.819088,0.287016
388.131678,0.287305
388.444268,0.287600
388.756858,0.287902
389.069448,0.288211
389.382038,0.288526
389.694628,0.288849
390.007218,0.289179
390.319808,0.289516
390.632398,0.289861
390.944988,0.290215
391.257578,0.290576
391.570168,0.290947
391.882758,0.291326
392.195348,0.291714
392.507938,0.292112
392.820528,0.292519
393.133118,0.292937
393.445708,0.293365
