# rshift,intensity
80.391256,0.276449
80.703383,0.276450
81.015509,0.276451
81.327635,0.276451
81.639761,0.276452
81.951887,0.276453
82.264014,0.276454
82.576140,0.276455
82.888266,0.276456
83.200392,0.276457
83.512518,0.276458
83.824645,0.276459
84.136771,0.276460
84.448897,0.276461
84.761023,0.276462
85.073150,0.276463
85.385276,0.276464
85.697402,0.276465
86.009528,0.276466
86.321654,0.276467
86.633781,0.276468
86.945907,0.276469
87.258033,0.276469
87.570159,0.276470
87.882285,0.276471
88.194412,0.276472
88.506538,0.276473
88.818664,0.276474
89.130790,0.276475
89.442916,0.276476
89.755043,0.276477
90.067169,0.276478
90.379295,0.276479
90.691421,0.276480
91.003548,0.276481
91.315674,0.276482
91.627800,0.276483
91.939926,0.276484
92.252052,0.276485
92.564179,0.276486
92.876305,0.276487
93.188431,0.276488
93.500557,0.276489
93.812683,0.276490
94.124810,0.276491
94.436936,0.276492
94.749062,0.276493
95.061188,0.276494
95.373314,0.276495
95.685441,0.276497
95.997567,0.276498
96.309693,0.276499
96.621819,0.276500
96.933946,0.276501
97.246072,0.276502
97.558198,0.276503
97.870324,0.276504
98.182450,0.276505
98.494577,0.276506
98.806703,0.276507
99.118829,0.276508
99.430955,0.276509
99.743081,0.276510
100.055208,0.276511
100.367334,0.276512
100.679460,0.276513
100.991586,0.276515
101.303713,0.276516
101.615839,0.276517
101.927965,0.276518
102.240091,0.276519
102.552217,0.276520
102.864344,0.276521
103.176470,0.276522
103.488596,0.276523
103.800722,0.276524
104.112848,0.276525
104.424975,0.276527
104.737101,0.276528
105.049227,0.276529
105.361353,0.276530
105.673479,0.276531
105.985606,0.276532
106.297732,0.276533
106.609858,0.276534
106.921984,0.276536
107.234111,0.276537
107.546237,0.276538
107.858363,0.276539
108.170489,0.276540
108.482615,0.276541
108.794742,0.276542
109.106868,0.276544
109.418994,0.276545
109.731120,0.276546
110.043246,0.276547
110.355373,0.276548
110.667499,0.276549
110.979625,0.276551
111.291751,0.276552
111.603877,0.276553
111.916004,0.276554
112.228130,0.276555
112.540256,0.276556
112.852382,0.276558
113.164509,0.276559
113.476635,0.276560
113.788761,0.276561
114.100887,0.276562
114.413013,0.276564
114.725140,0.276565
115.037266,0.276566
115.349392,0.276567
115.661518,0.276569
115.973644,0.276570
116.285771,0.276571
116.597897,0.276572
116.910023,0.276573
117.222149,0.276575
117.534276,0.276576
117.846402,0.276577
118.158528,0.276578
118.470654,0.276580
118.782780,0.276581
119.094907,0.276582
119.407033,0.276583
119.719159,0.276585
120.031285,0.276586
120.343411,0.276587
120.655538,0.276588
120.967664,0.276590
121.279790,0.276591
121.591916,0.276592
121.904042,0.276594
122.216169,0.276595
122.528295,0.276596
122.840421,0.276598
123.152547,0.276599
123.464674,0.276600
123.776800,0.276601
124.088926,0.276603
124.401052,0.276604
124.713178,0.276605
125.025305,0.276607
125.337431,0.276608
125.649557,0.276609
125.961683,0.276611
126.273809,0.276612
126.585936,0.276613
126.898062,0.276615
127.210188,0.276616
127.522314,0.276617
127.834441,0.276619
128.146567,0.276620
128.458693,0.276621
128.770819,0.276623
129.082945,0.276624
129.395072,0.276626
129.707198,0.276627
130.019324,0.276628
130.331450,0.276630
130.643576,0.276631
130.955703,0.276633
131.267829,0.276634
131.579955,0.276635
131.892081,0.276637
132.204207,0.276638
132.516334,0.276640
132.828460,0.276641
133.140586,0.276642
133.452712,0.276644
133.764839,0.276645
134.076965,0.276647
134.389091,0.276648
134.701217,0.276650
135.013343,0.276651
135.325470,0.276652
135.637596,0.276654
135.949722,0.276655
136.261848,0.276657
136.573974,0.276658
136.886101,0.276660
137.198227,0.276661
137.510353,0.276663
137.822479,0.276664
138.134605,0.276666
138.446732,0.276667
138.758858,0.276669
139.070984,0.276670
139.383110,0.276672
139.695237,0.276673
140.007363,0.276675
140.319489,0.276676
140.631615,0.276678
140.943741,0.276679
141.255868,0.276681
141.567994,0.276682
141.880120,0.276684
142.192246,0.276685
142.504372,0.276687
142.816499,0.276689
143.128625,0.276690
143.440751,0.276692
143.752877,0.276693
144.065004,0.276695
144.377130,0.276696
144.689256,0.276698
145.001382,0.276699
145.313508,0.276701
145.625635,0.276703
145.937761,0.276704
146.249887,0.276706
146.562013,0.276707
146.874139,0.276709
147.186266,0.276711
147.498392,0.276712
147.810518,0.276714
148.122644,0.276716
148.434770,0.276717
148.746897,0.276719
149.059023,0.276721
149.371149,0.276722
149.683275,0.276724
149.995402,0.276725
150.307528,0.276727
150.619654,0.276729
150.931780,0.276731
151.243906,0.276732
151.556033,0.276734
151.868159,0.276736
152.180285,0.276737
152.492411,0.276739
152.804537,0.276741
153.116664,0.276742
153.428790,0.276744
153.740916,0.276746
154.053042,0.276748
154.365168,0.276749
154.677295,0.276751
154.989421,0.276753
155.301547,0.276755
155.613673,0.276756
155.925800,0.276758
156.237926,0.276760
156.550052,0.276762
156.862178,0.276763
157.174304,0.276765
157.486431,0.276767
157.798557,0.276769
158.110683,0.276770
158.422809,0.276772
158.734935,0.276774
159.047062,0.276776
159.359188,0.276778
159.671314,0.276780
159.983440,0.276781
160.295567,0.276783
160.607693,0.276785
160.919819,0.276787
161.231945,0.276789
161.544071,0.276791
161.856198,0.276792
162.168324,0.276794
162.480450,0.276796
162.792576,0.276798
163.104702,0.276800
163.416829,0.276802
163.728955,0.276804
164.041081,0.276806
164.353207,0.276808
164.665333,0.276810
164.977460,0.276811
165.289586,0.276813
165.601712,0.276815
165.913838,0.276817
166.225965,0.276819
166.538091,0.276821
166.850217,0.276823
167.162343,0.276825
167.474469,0.276827
167.786596,0.276829
168.098722,0.276831
168.410848,0.276833
168.722974,0.276835
169.035100,0.276837
169.347227,0.276839
169.659353,0.276841
169.971479,0.276843
170.283605,0.276845
170.595732,0.276847
170.907858,0.276849
171.219984,0.276851
171.532110,0.276853
171.844236,0.276855
172.156363,0.276857
172.468489,0.276859
172.780615,0.276862
173.092741,0.276864
173.404867,0.276866
173.716994,0.276868
174.029120,0.276870
174.341246,0.276872
174.653372,0.276874
174.965498,0.276876
175.277625,0.276878
175.589751,0.276881
175.901877,0.276883
176.214003,0.276885
176.526130,0.276887
176.838256,0.276889
177.150382,0.276891
177.462508,0.276894
177.774634,0.276896
178.086761,0.276898
178.398887,0.276900
178.711013,0.276902
179.023139,0.276905
179.335265,0.276907
179.647392,0.276909
179.959518,0.276911
180.271644,0.276914
180.583770,0.276916
180.895896,0.276918
181.208023,0.276920
181.520149,0.276923
181.832275,0.276925
182.144401,0.276927
182.456528,0.276930
182.768654,0.276932
183.080780,0.276934
183.392906,0.276937
183.705032,0.276939
184.017159,0.276941
184.329285,0.276944
184.641411,0.276946
184.953537,0.276948
185.265663,0.276951
185.577790,0.276953
185.889916,0.276956
186.202042,0.276958
186.514168,0.276960
186.826295,0.276963
187.138421,0.276965
187.450547,0.276968
187.762673,0.276970
188.074799,0.276973
188.386926,0.276975
188.699052,0.276977
189.011178,0.276980
189.323304,0.276982
189.635430,0.276985
189.947557,0.276987
190.259683,0.276990
190.571809,0.276992
190.883935,0.276995
191.196061,0.276998
191.508188,0.277000
191.820314,0.277003
192.132440,0.277005
192.444566,0.277008
192.756693,0.277010
193.068819,0.277013
193.380945,0.277016
193.693071,0.277018
194.005197,0.277021
194.317324,0.277023
194.629450,0.277026
194.941576,0.277029
195.253702,0.277031
195.565828,0.277034
195.877955,0.277037
196.190081,0.277039
196.502207,0.277042
196.814333,0.277045
197.126459,0.277048
197.438586,0.277050
197.750712,0.277053
198.062838,0.277056
198.374964,0.277058
198.687091,0.277061
198.999217,0.277064
199.311343,0.277067
199.623469,0.277070
199.935595,0.277072
200.247722,0.277075
200.559848,0.277078
200.871974,0.277081
201.184100,0.277084
201.496226,0.277087
201.808353,0.277089
202.120479,0.277092
202.432605,0.277095
202.744731,0.277098
203.056858,0.277101
203.368984,0.277104
203.681110,0.277107
203.993236,0.277110
204.305362,0.277113
204.617489,0.277116
204.929615,0.277119
205.241741,0.277122
205.553867,0.277125
205.865993,0.277128
206.178120,0.277131
206.490246,0.277134
206.802372,0.277137
207.114498,0.277140
207.426624,0.277143
207.738751,0.277146
208.050877,0.277149
208.363003,0.277152
208.675129,0.277155
208.987256,0.277158
209.299382,0.277162
209.611508,0.277165
209.923634,0.277168
210.235760,0.277171
210.547887,0.277174
210.860013,0.277177
211.172139,0.277181
211.484265,0.277184
211.796391,0.277187
212.108518,0.277190
212.420644,0.277194
212.732770,0.277197
213.044896,0.277200
213.357023,0.277203
213.669149,0.277207
213.981275,0.277210
214.293401,0.277213
214.605527,0.277217
214.917654,0.277220
215.229780,0.277223
215.541906,0.277227
215.854032,0.277230
216.166158,0.277234
216.478285,0.277237
216.790411,0.277240
217.102537,0.277244
217.414663,0.277247
217.726789,0.277251
218.038916,0.277254
218.351042,0.277258
218.663168,0.277261
218.975294,0.277265
219.287421,0.277268
219.599547,0.277272
219.911673,0.277276
220.223799,0.277279
220.535925,0.277283
220.848052,0.277286
221.160178,0.277290
221.472304,0.277294
221.784430,0.277297
222.096556,0.277301
222.408683,0.277305
222.720809,0.277308
223.032935,0.277312
223.345061,0.277316
223.657187,0.277320
223.969314,0.277323
224.281440,0.277327
224.593566,0.277331
224.905692,0.277335
225.217819,0.277339
225.529945,0.277342
225.842071,0.277346
226.154197,0.277350
226.466323,0.277354
226.778450,0.277358
227.090576,0.277362
227.402702,0.277366
227.714828,0.277370
228.026954,0.277374
228.339081,0.277378
228.651207,0.277382
228.963333,0.277386
229.275459,0.277390
229.587586,0.277394
229.899712,0.277398
230.211838,0.277402
230.523964,0.277406
230.836090,0.277410
231.148217,0.277414
231.460343,0.277418
231.772469,0.277423
232.084595,0.277427
232.396721,0.277431
232.708848,0.277435
233.020974,0.277439
233.333100,0.277444
233.645226,0.277448
233.957352,0.277452
234.269479,0.277457
234.581605,0.277461
234.893731,0.277465
235.205857,0.277470
235.517984,0.277474
235.830110,0.277478
236.142236,0.277483
236.454362,0.277487
236.766488,0.277492
237.078615,0.277496
237.390741,0.277501
237.702867,0.277505
238.014993,0.277510
238.327119,0.277514
238.639246,0.277519
238.951372,0.277524
239.263498,0.277528
239.575624,0.277533
239.887750,0.277538
240.199877,0.277542
240.512003,0.277547
240.824129,0.277552
241.136255,0.277556
241.448382,0.277561
241.760508,0.277566
242.072634,0.277571
242.384760,0.277576
242.696886,0.277580
243.009013,0.277585
243.321139,0.277590
243.633265,0.277595
243.945391,0.277600
244.257517,0.277605
244.569644,0.277610
244.881770,0.277615
245.193896,0.277620
245.506022,0.277625
245.818149,0.277630
246.130275,0.277635
246.442401,0.277640
246.754527,0.277646
247.066653,0.277651
247.378780,0.277656
247.690906,0.277661
248.003032,0.277666
248.315158,0.277672
248.627284,0.277677
248.939411,0.277682
249.251537,0.277688
249.563663,0.277693
249.875789,0.277698
250.187915,0.277704
250.500042,0.277709
250.812168,0.277715
251.124294,0.277720
251.436420,0.277726
251.748547,0.277731
252.060673,0.277737
252.372799,0.277742
252.684925,0.277748
252.997051,0.277754
253.309178,0.277759
253.621304,0.277765
253.933430,0.277771
254.245556,0.277777
254.557682,0.277782
254.869809,0.277788
255.181935,0.277794
255.494061,0.277800
255.806187,0.277806
256.118314,0.277812
256.430440,0.277818
256.742566,0.277824
257.054692,0.277830
257.366818,0.277836
257.678945,0.277842
257.991071,0.277848
258.303197,0.277854
258.615323,0.277860
258.927449,0.277866
259.239576,0.277872
259.551702,0.277879
259.863828,0.277885
260.175954,0.277891
260.488080,0.277898
260.800207,0.277904
261.112333,0.277910
261.424459,0.277917
261.736585,0.277923
262.048712,0.277930
262.360838,0.277936
262.672964,0.277943
262.985090,0.277949
263.297216,0.277956
263.609343,0.277963
263.921469,0.277969
264.233595,0.277976
264.545721,0.277983
264.857847,0.277990
265.169974,0.277997
265.482100,0.278003
265.794226,0.278010
266.106352,0.278017
266.418478,0.278024
266.730605,0.278031
267.042731,0.278038
267.354857,0.278045
267.666983,0.278053
267.979110,0.278060
268.291236,0.278067
268.603362,0.278074
268.915488,0.278081
269.227614,0.278089
269.539741,0.278096
269.851867,0.278103
270.163993,0.278111
270.476119,0.278118
270.788245,0.278126
271.100372,0.278133
271.412498,0.278141
271.724624,0.278148
272.036750,0.278156
272.348877,0.278164
272.661003,0.278172
272.973129,0.278179
273.285255,0.278187
273.597381,0.278195
273.909508,0.278203
274.221634,0.278211
274.533760,0.278219
274.845886,0.278227
275.158012,0.278235
275.470139,0.278243
275.782265,0.278251
276.094391,0.278260
276.406517,0.278268
276.718643,0.278276
277.030770,0.278284
277.342896,0.278293
277.655022,0.278301
277.967148,0.278310
278.279275,0.278318
278.591401,0.278327
278.903527,0.278335
279.215653,0.278344
279.527779,0.278353
279.839906,0.278362
280.152032,0.278370
280.464158,0.278379
280.776284,0.278388
281.088410,0.278397
281.400537,0.278406
281.712663,0.278415
282.024789,0.278424
282.336915,0.278434
282.649041,0.278443
282.961168,0.278452
283.273294,0.278461
283.585420,0.278471
283.897546,0.278480
284.209673,0.278490
284.521799,0.278499
284.833925,0.278509
285.146051,0.278519
285.458177,0.278528
285.770304,0.278538
286.082430,0.278548
286.394556,0.278558
286.706682,0.278568
287.018808,0.278578
287.330935,0.278588
287.643061,0.278598
287.955187,0.278608
288.267313,0.278618
288.579440,0.278629
288.891566,0.278639
289.203692,0.278649
289.515818,0.278660
289.827944,0.278670
290.140071,0.278681
290.452197,0.278692
290.764323,0.278703
291.076449,0.278713
291.388575,0.278724
291.700702,0.278735
292.012828,0.278746
292.324954,0.278757
292.637080,0.278768
292.949206,0.278780
293.261333,0.278791
293.573459,0.278802
293.885585,0.278814
294.197711,0.278825
294.509838,0.278837
294.821964,0.278848
295.134090,0.278860
295.446216,0.278872
295.758342,0.278884
296.070469,0.278896
296.382595,0.278908
296.694721,0.278920
297.006847,0.278932
297.318973,0.278944
297.631100,0.278956
297.943226,0.278969
298.255352,0.278981
298.567478,0.278994
298.879605,0.279006
299.191731,0.279019
299.503857,0.279032
299.815983,0.279045
300.128109,0.279058
300.440236,0.279071
300.752362,0.279084
301.064488,0.279097
301.376614,0.279110
301.688740,0.279124
302.000867,0.279137
302.312993,0.279151
302.625119,0.279165
302.937245,0.279178
303.249371,0.279192
303.561498,0.279206
303.873624,0.279220
304.185750,0.279234
304.497876,0.279248
304.810003,0.279263
305.122129,0.279277
305.434255,0.279292
305.746381,0.279306
306.058507,0.279321
306.370634,0.279336
306.682760,0.279351
306.994886,0.279366
307.307012,0.279381
307.619138,0.279396
307.931265,0.279411
308.243391,0.279427
308.555517,0.279442
308.867643,0.279458
309.179769,0.279474
309.491896,0.279490
309.804022,0.279506
310.116148,0.279522
310.428274,0.279538
310.740401,0.279554
311.052527,0.279571
311.364653,0.279587
311.676779,0.279604
311.988905,0.279621
312.301032,0.279638
312.613158,0.279655
312.925284,0.279672
313.237410,0.279689
313.549536,0.279706
313.861663,0.279724
314.173789,0.279742
314.485915,0.279759
314.798041,0.279777
315.110168,0.279795
315.422294,0.279814
315.734420,0.279832
316.046546,0.279850
316.358672,0.279869
316.670799,0.279888
316.982925,0.279907
317.295051,0.279926
317.607177,0.279945
317.919303,0.279964
318.231430,0.279983
318.543556,0.280003
318.855682,0.280023
319.167808,0.280043
319.479934,0.280063
319.792061,0.280083
320.104187,0.280103
320.416313,0.280124
320.728439,0.280145
321.040566,0.280165
321.352692,0.280186
321.664818,0.280208
321.976944,0.280229
322.289070,0.280250
322.601197,0.280272
322.913323,0.280294
323.225449,0.280316
323.537575,0.280338
323.849701,0.280360
324.161828,0.280383
324.473954,0.280406
324.786080,0.280429
325.098206,0.280452
325.410332,0.280475
325.722459,0.280499
326.034585,0.280522
326.346711,0.280546
326.658837,0.280570
326.970964,0.280594
327.283090,0.280619
327.595216,0.280644
327.907342,0.280668
328.219468,0.280694
328.531595,0.280719
328.843721,0.280744
329.155847,0.280770
329.467973,0.280796
329.780099,0.280822
330.092226,0.280849
330.404352,0.280875
330.716478,0.280902
331.028604,0.280929
331.340731,0.280956
331.652857,0.280984
331.964983,0.281012
332.277109,0.281040
332.589235,0.281068
332.901362,0.281097
333.213488,0.281125
333.525614,0.281154
333.837740,0.281184
334.149866,0.281213
334.461993,0.281243
334.774119,0.281273
335.086245,0.281304
335.398371,0.281334
335.710497,0.281365
336.022624,0.281396
336.334750,0.281428
336.646876,0.281459
336.959002,0.281492
337.271129,0.281524
337.583255,0.281557
337.895381,0.281589
338.207507,0.281623
338.519633,0.281656
338.831760,0.281690
339.143886,0.281724
339.456012,0.281759
339.768138,0.281794
340.080264,0.281829
340.392391,0.281865
340.704517,0.281900
341.016643,0.281937
341.328769,0.281973
341.640896,0.282010
341.953022,0.282047
342.265148,0.282085
342.577274,0.282123
342.889400,0.282161
343.201527,0.282200
343.513653,0.282239
343.825779,0.282279
344.137905,0.282319
344.450031,0.282359
344.762158,0.282400
345.074284,0.282441
345.386410,0.282483
345.698536,0.282525
346.010662,0.282567
346.322789,0.282610
346.634915,0.282653
346.947041,0.282697
347.259167,0.282741
347.571294,0.282786
347.883420,0.282831
348.195546,0.282877
348.507672,0.282923
348.819798,0.282970
349.131925,0.283017
349.444051,0.283064
349.756177,0.283112
350.068303,0.283161
350.380429,0.283210
350.692556,0.283260
351.004682,0.283310
351.316808,0.283361
351.628934,0.283412
351.941060,0.283464
352.253187,0.283517
352.565313,0.283570
352.877439,0.283624
353.189565,0.283678
353.501692,0.283733
353.813818,0.283788
354.125944,0.283845
354.438070,0.283901
354.750196,0.283959
355.062323,0.284017
355.374449,0.284076
355.686575,0.284135
355.998701,0.284195
356.310827,0.284256
356.622954,0.284318
356.935080,0.284380
357.247206,0.284443
357.559332,0.284507
357.871459,0.284572
358.183585,0.284637
358.495711,0.284704
358.807837,0.284771
359.119963,0.284838
359.432090,0.284907
359.744216,0.284977
360.056342,0.285047
360.368468,0.285118
360.680594,0.285190
360.992721,0.285264
361.304847,0.285338
361.616973,0.285413
361.929099,0.285488
362.241225,0.285565
362.553352,0.285643
362.865478,0.285722
363.177604,0.285802
363.489730,0.285883
363.801857,0.285965
364.113983,0.286048
364.426109,0.286132
364.738235,0.286218
365.050361,0.286304
365.362488,0.286392
365.674614,0.286481
365.986740,0.286571
366.298866,0.286662
366.610992,0.286755
366.923119,0.286849
367.235245,0.286944
367.547371,0.287041
367.859497,0.287139
368.171623,0.287238
368.483750,0.287339
368.795876,0.287441
369.108002,0.287544
369.420128,0.287650
369.732255,0.287756
370.044381,0.287864
370.356507,0.287974
370.668633,0.288086
370.980759,0.288199
371.292886,0.288314
371.605012,0.288430
371.917138,0.288549
372.229264,0.288669
372.541390,0.288791
372.853517,0.288915
373.165643,0.289040
373.477769,0.289168
373.789895,0.289298
374.102022,0.289430
374.414148,0.289564
374.726274,0.289700
375.038400,0.289838
375.350526,0.289979
375.662653,0.290121
375.974779,0.290267
376.286905,0.290414
376.599031,0.290564
376.911157,0.290717
377.223284,0.290872
377.535410,0.291029
377.847536,0.291190
378.159662,0.291353
378.471788,0.291519
378.783915,0.291688
379.096041,0.291859
379.408167,0.292034
379.720293,0.292212
380.032420,0.292393
380.344546,0.292578
380.656672,0.292765
380.968798,0.292956
381.280924,0.293151
381.593051,0.293349
381.905177,0.293551
382.217303,0.293757
382.529429,0.293966
382.841555,0.294180
383.153682,0.294397
383.465808,0.294619
383.777934,0.294845
384.090060,0.295075
384.402186,0.295310
384.714313,0.295550
385.026439,0.295795
385.338565,0.296044
385.650691,0.296299
385.962818,0.296558
386.274944,0.296823
386.587070,0.297094
386.899196,0.297370
387.211322,0.297652
387.523449,0.297940
387.835575,0.298234
388.147701,0.298534
388.459827,0.298841
388.771953,0.299155
389.084080,0.299476
389.396206,0.299804
389.708332,0.300139
390.020458,0.300482
390.332585,0.300832
390.644711,0.301191
390.956837,0.301558
391.268963,0.301934
391.581089,0.302318
391.893216,0.302712
392.205342,0.303115
392.517468,0.303528
392.829594,0.303951
