# rshift,intensity
80.543123,0.283579
80.855713,0.283580
81.168303,0.283581
81.480893,0.283582
81.793483,0.283583
82.106073,0.283584
82.418663,0.283585
82.731253,0.283586
83.043843,0.283587
83.356433,0.283588
83.669023,0.283588
83.981613,0.283589
84.294203,0.283590
84.606793,0.283591
84.919383,0.283592
85.231973,0.283593
85.544563,0.283594
85.857153,0.283595
86.169743,0.283596
86.482333,0.283597
86.794923,0.283598
87.107513,0.283599
87.420103,0.283600
87.732693,0.283601
88.045283,0.283602
88.357873,0.283603
88.670463,0.283604
88.983053,0.283605
89.295643,0.283606
89.608233,0.283607
89.920823,0.283608
90.233413,0.283609
90.546003,0.283610
90.858593,0.283611
91.171183,0.283612
91.483773,0.283613
91.796363,0.283614
92.108953,0.283616
92.421543,0.283617
92.734133,0.283618
93.046723,0.283619
93.359313,0.283620
93.671903,0.283621
93.984493,0.283622
94.297083,0.283623
94.609673,0.283624
94.922263,0.283625
95.234853,0.283626
95.547443,0.283627
95.860033,0.283628
96.172623,0.283629
96.485213,0.283630
96.797803,0.283631
97.110393,0.283632
97.422983,0.283633
97.735573,0.283635
98.048163,0.283636
98.360753,0.283637
98.673343,0.283638
98.985933,0.283639
99.298523,0.283640
99.611113,0.283641
99.923703,0.283642
100.236293,0.283643
100.548883,0.283644
100.861473,0.283646
101.174063,0.283647
101.486653,0.283648
101.799243,0.283649
102.111833,0.283650
102.424423,0.283651
102.737013,0.283652
103.049603,0.283653
103.362193,0.283654
103.674783,0.283656
103.987373,0.283657
104.299963,0.283658
104.612553,0.283659
104.925143,0.283660
105.237733,0.283661
105.550323,0.283662
105.862913,0.283664
106.175503,0.283665
106.488093,0.283666
106.800683,0.283667
107.113273,0.283668
107.425863,0.283669
107.738453,0.283671
108.051043,0.283672
108.363633,0.283673
108.676223,0.283674
108.988813,0.283675
109.301403,0.283676
109.613993,0.283678
109.926583,0.283679
110.239173,0.283680
110.551763,0.283681
110.864353,0.283682
111.176943,0.283684
111.489533,0.283685
111.802123,0.283686
112.114713,0.283687
112.427303,0.283688
112.739893,0.283690
113.052483,0.283691
113.365073,0.283692
113.677663,0.283693
113.990253,0.283695
114.302843,0.283696
114.615433,0.283697
114.928023,0.283698
115.240613,0.283700
115.553203,0.283701
115.865793,0.283702
116.178383,0.283703
116.490973,0.283705
116.803563,0.283706
117.116153,0.283707
117.428743,0.283708
117.741333,0.283710
118.053923,0.283711
118.366513,0.283712
118.679103,0.283713
118.991693,0.283715
119.304283,0.283716
119.616873,0.283717
119.929463,0.283719
120.242053,0.283720
120.554643,0.283721
120.867233,0.283722
121.179822,0.283724
121.492412,0.283725
121.805002,0.283726
122.117592,0.283728
122.430182,0.283729
122.742772,0.283730
123.055362,0.283732
123.367952,0.283733
123.680542,0.283734
123.993132,0.283736
124.305722,0.283737
124.618312,0.283738
124.930902,0.283740
125.243492,0.283741
125.556082,0.283742
125.868672,0.283744
126.181262,0.283745
126.493852,0.283747
126.806442,0.283748
127.119032,0.283749
127.431622,0.283751
127.744212,0.283752
128.056802,0.283753
128.369392,0.283755
128.681982,0.283756
128.994572,0.283758
129.307162,0.283759
129.619752,0.283760
129.932342,0.283762
130.244932,0.283763
130.557522,0.283765
130.870112,0.283766
131.182702,0.283767
131.495292,0.283769
131.807882,0.283770
132.120472,0.283772
132.433062,0.283773
132.745652,0.283775
133.058242,0.283776
133.370832,0.283778
133.683422,0.283779
133.996012,0.283780
134.308602,0.283782
134.621192,0.283783
134.933782,0.283785
135.246372,0.283786
135.558962,0.283788
135.871552,0.283789
136.184142,0.283791
136.496732,0.283792
136.809322,0.283794
137.121912,0.283795
137.434502,0.283797
137.747092,0.283798
138.059682,0.283800
138.372272,0.283801
138.684862,0.283803
138.997452,0.283804
139.310042,0.283806
139.622632,0.283807
139.935222,0.283809
140.247812,0.283810
140.560402,0.283812
140.872992,0.283814
141.185582,0.283815
141.498172,0.283817
141.810762,0.283818
142.123352,0.283820
142.435942,0.283821
142.748532,0.283823
143.061122,0.283825
143.373712,0.283826
143.686302,0.283828
143.998892,0.283829
144.311482,0.283831
144.624072,0.283833
144.936662,0.283834
145.249252,0.283836
145.561842,0.283837
145.874432,0.283839
146.187022,0.283841
146.499612,0.283842
146.812202,0.283844
147.124792,0.283846
147.437382,0.283847
147.749972,0.283849
148.062562,0.283850
148.375152,0.283852
148.687742,0.283854
149.000332,0.283855
149.312922,0.283857
149.625512,0.283859
149.938102,0.283861
150.250692,0.283862
150.563282,0.283864
150.875872,0.283866
151.188462,0.283867
151.501052,0.283869
151.813642,0.283871
152.126232,0.283872
152.438822,0.283874
152.751412,0.283876
153.064002,0.283878
153.376592,0.283879
153.689182,0.283881
154.001772,0.283883
154.314362,0.283885
154.626952,0.283886
154.939542,0.283888
155.252132,0.283890
155.564722,0.283892
155.877312,0.283893
156.189902,0.283895
156.502492,0.283897
156.815082,0.283899
157.127672,0.283901
157.440262,0.283902
157.752852,0.283904
158.065442,0.283906
158.378032,0.283908
158.690622,0.283910
159.003212,0.283912
159.315802,0.283913
159.628392,0.283915
159.940982,0.283917
160.253572,0.283919
160.566162,0.283921
160.878752,0.283923
161.191342,0.283925
161.503932,0.283926
161.816522,0.283928
162.129112,0.283930
162.441702,0.283932
162.754292,0.283934
163.066882,0.283936
163.379472,0.283938
163.692062,0.283940
164.004652,0.283942
164.317242,0.283944
164.629832,0.283946
164.942422,0.283948
165.255012,0.283949
165.567602,0.283951
165.880192,0.283953
166.192782,0.283955
166.505372,0.283957
166.817962,0.283959
167.130552,0.283961
167.443142,0.283963
167.755732,0.283965
168.068322,0.283967
168.380912,0.283969
168.693502,0.283971
169.006092,0.283973
169.318682,0.283975
169.631272,0.283977
169.943862,0.283979
170.256452,0.283982
170.569042,0.283984
170.881632,0.283986
171.194222,0.283988
171.506812,0.283990
171.819402,0.283992
172.131992,0.283994
172.444582,0.283996
172.757172,0.283998
173.069762,0.284000
173.382352,0.284002
173.694942,0.284004
174.007532,0.284007
174.320122,0.284009
174.632712,0.284011
174.945302,0.284013
175.257892,0.284015
175.570482,0.284017
175.883072,0.284020
176.195662,0.284022
176.508252,0.284024
176.820842,0.284026
177.133432,0.284028
177.446022,0.284030
177.758612,0.284033
178.071202,0.284035
178.383792,0.284037
178.696382,0.284039
179.008972,0.284042
179.321562,0.284044
179.634152,0.284046
179.946742,0.284048
180.259332,0.284051
180.571922,0.284053
180.884512,0.284055
181.197102,0.284057
181.509692,0.284060
181.822282,0.284062
182.134872,0.284064
182.447462,0.284067
182.760052,0.284069
183.072642,0.284071
183.385232,0.284074
183.697822,0.284076
184.010412,0.284078
184.323001,0.284081
184.635591,0.284083
184.948181,0.284086
185.260771,0.284088
185.573361,0.284090
185.885951,0.284093
186.198541,0.284095
186.511131,0.284098
186.823721,0.284100
187.136311,0.284102
187.448901,0.284105
187.761491,0.284107
188.074081,0.284110
188.386671,0.284112
188.699261,0.284115
189.011851,0.284117
189.324441,0.284120
189.637031,0.284122
189.949621,0.284125
190.262211,0.284127
190.574801,0.284130
190.887391,0.284132
191.199981,0.284135
191.512571,0.284138
191.825161,0.284140
192.137751,0.284143
192.450341,0.284145
192.762931,0.284148
193.075521,0.284150
193.388111,0.284153
193.700701,0.284156
194.013291,0.284158
194.325881,0.284161
194.638471,0.284164
194.951061,0.284166
195.263651,0.284169
195.576241,0.284172
195.888831,0.284174
196.201421,0.284177
196.514011,0.284180
196.826601,0.284182
197.139191,0.284185
197.451781,0.284188
197.764371,0.284191
198.076961,0.284193
198.389551,0.284196
198.702141,0.284199
199.014731,0.284202
199.327321,0.284204
199.639911,0.284207
199.952501,0.284210
200.265091,0.284213
200.577681,0.284216
200.890271,0.284218
201.202861,0.284221
201.515451,0.284224
201.828041,0.284227
202.140631,0.284230
202.453221,0.284233
202.765811,0.284236
203.078401,0.284239
203.390991,0.284242
203.703581,0.284244
204.016171,0.284247
204.328761,0.284250
204.641351,0.284253
204.953941,0.284256
205.266531,0.284259
205.579121,0.284262
205.891711,0.284265
206.204301,0.284268
206.516891,0.284271
206.829481,0.284274
207.142071,0.284277
207.454661,0.284281
207.767251,0.284284
208.079841,0.284287
208.392431,0.284290
208.705021,0.284293
209.017611,0.284296
209.330201,0.284299
209.642791,0.284302
209.955381,0.284305
210.267971,0.284309
210.580561,0.284312
210.893151,0.284315
211.205741,0.284318
211.518331,0.284321
211.830921,0.284325
212.143511,0.284328
212.456101,0.284331
212.768691,0.284334
213.081281,0.284338
213.393871,0.284341
213.706461,0.284344
214.019051,0.284347
214.331641,0.284351
214.644231,0.284354
214.956821,0.284357
215.269411,0.284361
215.582001,0.284364
215.894591,0.284368
216.207181,0.284371
216.519771,0.284374
216.832361,0.284378
217.144951,0.284381
217.457541,0.284385
217.770131,0.284388
218.082721,0.284392
218.395311,0.284395
218.707901,0.284399
219.020491,0.284402
219.333081,0.284406
219.645671,0.284409
219.958261,0.284413
220.270851,0.284416
220.583441,0.284420
220.896031,0.284424
221.208621,0.284427
221.521211,0.284431
221.833801,0.284434
222.146391,0.284438
222.458981,0.284442
222.771571,0.284445
223.084161,0.284449
223.396751,0.284453
223.709341,0.284457
224.021931,0.284460
224.334521,0.284464
224.647111,0.284468
224.959701,0.284472
225.272291,0.284475
225.584881,0.284479
225.897471,0.284483
226.210061,0.284487
226.522651,0.284491
226.835241,0.284495
227.147831,0.284499
227.460421,0.284503
227.773011,0.284506
228.085601,0.284510
228.398191,0.284514
228.710781,0.284518
229.023371,0.284522
229.335961,0.284526
229.648551,0.284530
229.961141,0.284534
230.273731,0.284538
230.586321,0.284543
230.898911,0.284547
231.211501,0.284551
231.524091,0.284555
231.836681,0.284559
232.149271,0.284563
232.461861,0.284567
232.774451,0.284572
233.087041,0.284576
233.399631,0.284580
233.712221,0.284584
234.024811,0.284588
234.337401,0.284593
234.649991,0.284597
234.962581,0.284601
235.275171,0.284606
235.587761,0.284610
235.900351,0.284614
236.212941,0.284619
236.525531,0.284623
236.838121,0.284628
237.150711,0.284632
237.463301,0.284637
237.775891,0.284641
238.088481,0.284646
238.401071,0.284650
238.713661,0.284655
239.026251,0.284659
239.338841,0.284664
239.651431,0.284668
239.964021,0.284673
240.276611,0.284678
240.589201,0.284682
240.901791,0.284687
241.214381,0.284692
241.526971,0.284696
241.839561,0.284701
242.152151,0.284706
242.464741,0.284711
242.777331,0.284715
243.089921,0.284720
243.402511,0.284725
243.715101,0.284730
244.027691,0.284735
244.340281,0.284740
244.652871,0.284745
244.965461,0.284750
245.278051,0.284755
245.590641,0.284760
245.903231,0.284765
246.215821,0.284770
246.528411,0.284775
246.841001,0.284780
247.153591,0.284785
247.466180,0.284790
247.778770,0.284795
248.091360,0.284800
248.403950,0.284806
248.716540,0.284811
249.029130,0.284816
249.341720,0.284821
249.654310,0.284827
249.966900,0.284832
250.279490,0.284837
250.592080,0.284843
250.904670,0.284848
251.217260,0.284853
251.529850,0.284859
251.842440,0.284864
252.155030,0.284870
252.467620,0.284875
252.780210,0.284881
253.092800,0.284886
253.405390,0.284892
253.717980,0.284898
254.030570,0.284903
254.343160,0.284909
254.655750,0.284915
254.968340,0.284920
255.280930,0.284926
255.593520,0.284932
255.906110,0.284938
256.218700,0.284944
256.531290,0.284949
256.843880,0.284955
257.156470,0.284961
257.469060,0.284967
257.781650,0.284973
258.094240,0.284979
258.406830,0.284985
258.719420,0.284991
259.032010,0.284997
259.344600,0.285003
259.657190,0.285010
259.969780,0.285016
260.282370,0.285022
260.594960,0.285028
260.907550,0.285034
261.220140,0.285041
261.532730,0.285047
261.845320,0.285053
262.157910,0.285060
262.470500,0.285066
262.783090,0.285073
263.095680,0.285079
263.408270,0.285086
263.720860,0.285092
264.033450,0.285099
264.346040,0.285105
264.658630,0.285112
264.971220,0.285119
265.283810,0.285125
265.596400,0.285132
265.908990,0.285139
266.221580,0.285146
266.534170,0.285153
266.846760,0.285159
267.159350,0.285166
267.471940,0.285173
267.784530,0.285180
268.097120,0.285187
268.409710,0.285194
268.722300,0.285201
269.034890,0.285209
269.347480,0.285216
269.660070,0.285223
269.972660,0.285230
270.285250,0.285237
270.597840,0.285245
270.910430,0.285252
271.223020,0.285260
271.535610,0.285267
271.848200,0.285274
272.160790,0.285282
272.473380,0.285289
272.785970,0.285297
273.098560,0.285305
273.411150,0.285312
273.723740,0.285320
274.036330,0.285328
274.348920,0.285336
274.661510,0.285343
274.974100,0.285351
275.286690,0.285359
275.599280,0.285367
275.911870,0.285375
276.224460,0.285383
276.537050,0.285391
276.849640,0.285399
277.162230,0.285407
277.474820,0.285416
277.787410,0.285424
278.100000,0.285432
278.412590,0.285441
278.725180,0.285449
279.037770,0.285457
279.350360,0.285466
279.662950,0.285474
279.975540,0.285483
280.288130,0.285492
280.600720,0.285500
280.913310,0.285509
281.225900,0.285518
281.538490,0.285527
281.851080,0.285535
282.163670,0.285544
282.476260,0.285553
282.788850,0.285562
283.101440,0.285571
283.414030,0.285581
283.726620,0.285590
284.039210,0.285599
284.351800,0.285608
284.664390,0.285617
284.976980,0.285627
285.289570,0.285636
285.602160,0.285646
285.914750,0.285655
286.227340,0.285665
286.539930,0.285675
286.852520,0.285684
287.165110,0.285694
287.477700,0.285704
287.790290,0.285714
288.102880,0.285724
288.415470,0.285734
288.728060,0.285744
289.040650,0.285754
289.353240,0.285764
289.665830,0.285774
289.978420,0.285784
290.291010,0.285795
290.603600,0.285805
290.916190,0.285816
291.228780,0.285826
291.541370,0.285837
291.853960,0.285847
292.166550,0.285858
292.479140,0.285869
292.791730,0.285880
293.104320,0.285891
293.416910,0.285902
293.729500,0.285913
294.042090,0.285924
294.354680,0.285935
294.667270,0.285946
294.979860,0.285958
295.292450,0.285969
295.605040,0.285981
295.917630,0.285992
296.230220,0.286004
296.542810,0.286015
296.855400,0.286027
297.167990,0.286039
297.480580,0.286051
297.793170,0.286063
298.105760,0.286075
298.418350,0.286087
298.730940,0.286099
299.043530,0.286111
299.356120,0.286124
299.668710,0.286136
299.981300,0.286149
300.293890,0.286161
300.606480,0.286174
300.919070,0.286187
301.231660,0.286200
301.544250,0.286213
301.856840,0.286226
302.169430,0.286239
302.482020,0.286252
302.794610,0.286265
303.107200,0.286278
303.419790,0.286292
303.732380,0.286305
304.044970,0.286319
304.357560,0.286333
304.670150,0.286346
304.982740,0.286360
305.295330,0.286374
305.607920,0.286388
305.920510,0.286403
306.233100,0.286417
306.545690,0.286431
306.858280,0.286446
307.170870,0.286460
307.483460,0.286475
307.796050,0.286490
308.108640,0.286505
308.421230,0.286519
308.733820,0.286535
309.046410,0.286550
309.359000,0.286565
309.671590,0.286580
309.984180,0.286596
310.296770,0.286611
310.609359,0.286627
310.921949,0.286643
311.234539,0.286659
311.547129,0.286675
311.859719,0.286691
312.172309,0.286707
312.484899,0.286724
312.797489,0.286740
313.110079,0.286757
313.422669,0.286774
313.735259,0.286790
314.047849,0.286807
314.360439,0.286824
314.673029,0.286842
314.985619,0.286859
315.298209,0.286876
315.610799,0.286894
315.923389,0.286912
316.235979,0.286930
316.548569,0.286948
316.861159,0.286966
317.173749,0.286984
317.486339,0.287002
317.798929,0.287021
318.111519,0.287040
318.424109,0.287058
318.736699,0.287077
319.049289,0.287097
319.361879,0.287116
319.674469,0.287135
319.987059,0.287155
320.299649,0.287174
320.612239,0.287194
320.924829,0.287214
321.237419,0.287234
321.550009,0.287255
321.862599,0.287275
322.175189,0.287296
322.487779,0.287317
322.800369,0.287337
323.112959,0.287359
323.425549,0.287380
323.738139,0.287401
324.050729,0.287423
324.363319,0.287445
324.675909,0.287467
324.988499,0.287489
325.301089,0.287511
325.613679,0.287534
325.926269,0.287556
326.238859,0.287579
326.551449,0.287602
326.864039,0.287626
327.176629,0.287649
327.489219,0.287673
327.801809,0.287696
328.114399,0.287720
328.426989,0.287745
328.739579,0.287769
329.052169,0.287794
329.364759,0.287819
329.677349,0.287844
329.989939,0.287869
330.302529,0.287894
330.615119,0.287920
330.927709,0.287946
331.240299,0.287972
331.552889,0.287998
331.865479,0.288025
332.178069,0.288052
332.490659,0.288079
332.803249,0.288106
333.115839,0.288134
333.428429,0.288161
333.741019,0.288189
334.053609,0.288218
334.366199,0.288246
334.678789,0.288275
334.991379,0.288304
335.303969,0.288333
335.616559,0.288363
335.929149,0.288393
336.241739,0.288423
336.554329,0.288453
336.866919,0.288484
337.179509,0.288515
337.492099,0.288546
337.804689,0.288577
338.117279,0.288609
338.429869,0.288641
338.742459,0.288673
339.055049,0.288706
339.367639,0.288739
339.680229,0.288772
339.992819,0.288806
340.305409,0.288840
340.617999,0.288874
340.930589,0.288909
341.243179,0.288944
341.555769,0.288979
341.868359,0.289015
342.180949,0.289051
342.493539,0.289087
342.806129,0.289123
343.118719,0.289160
343.431309,0.289198
343.743899,0.289236
344.056489,0.289274
344.369079,0.289312
344.681669,0.289351
344.994259,0.289390
345.306849,0.289430
345.619439,0.289470
345.932029,0.289511
346.244619,0.289552
346.557209,0.289593
346.869799,0.289635
347.182389,0.289677
347.494979,0.289720
347.807569,0.289763
348.120159,0.289806
348.432749,0.289850
348.745339,0.289895
349.057929,0.289940
349.370519,0.289985
349.683109,0.290031
349.995699,0.290077
350.308289,0.290124
350.620879,0.290172
350.933469,0.290220
351.246059,0.290268
351.558649,0.290317
351.871239,0.290367
352.183829,0.290417
352.496419,0.290467
352.809009,0.290519
353.121599,0.290570
353.434189,0.290623
353.746779,0.290676
354.059369,0.290729
354.371959,0.290783
354.684549,0.290838
354.997139,0.290894
355.309729,0.290950
355.622319,0.291007
355.934909,0.291064
356.247499,0.291122
356.560089,0.291181
356.872679,0.291240
357.185269,0.291300
357.497859,0.291361
357.810449,0.291423
358.123039,0.291485
358.435629,0.291549
358.748219,0.291612
359.060809,0.291677
359.373399,0.291743
359.685989,0.291809
359.998579,0.291876
360.311169,0.291944
360.623759,0.292013
360.936349,0.292083
361.248939,0.292153
361.561529,0.292225
361.874119,0.292297
362.186709,0.292370
362.499299,0.292445
362.811889,0.292520
363.124479,0.292596
363.437069,0.292673
363.749659,0.292752
364.062249,0.292831
364.374839,0.292911
364.687429,0.292993
365.000019,0.293075
365.312609,0.293159
365.625199,0.293244
365.937789,0.293330
366.250379,0.293417
366.562969,0.293506
366.875559,0.293595
367.188149,0.293686
367.500739,0.293778
367.813329,0.293872
368.125919,0.293966
368.438509,0.294063
368.751099,0.294160
369.063689,0.294259
369.376279,0.294359
369.688869,0.294461
370.001459,0.294565
370.314049,0.294669
370.626639,0.294776
370.939229,0.294884
371.251819,0.294994
371.564409,0.295105
371.876999,0.295218
372.189589,0.295333
372.502179,0.295449
372.814769,0.295568
373.127359,0.295688
373.439949,0.295810
373.752538,0.295934
374.065128,0.296060
374.377718,0.296188
374.690308,0.296318
375.002898,0.296450
375.315488,0.296585
375.628078,0.296721
375.940668,0.296860
376.253258,0.297001
376.565848,0.297144
376.878438,0.297290
377.191028,0.297439
377.503618,0.297589
377.816208,0.297743
378.128798,0.297899
378.441388,0.298058
378.753978,0.298219
379.066568,0.298384
379.379158,0.298551
379.691748,0.298721
380.004338,0.298895
380.316928,0.299071
380.629518,0.299251
380.942108,0.299434
381.254698,0.299620
381.567288,0.299810
381.879878,0.300003
382.192468,0.300200
382.505058,0.300401
382.817648,0.300606
383.130238,0.300814
383.442828,0.301027
383.755418,0.301244
384.068008,0.301464
384.380598,0.301690
384.693188,0.301920
385.005778,0.302154
385.318368,0.302393
385.630958,0.302637
385.943548,0.302887
386.256138,0.303141
386.568728,0.303400
386.881318,0.303665
387.193908,0.303936
387.506498,0.304212
387.819088,0.304495
388.131678,0.304783
388.444268,0.305078
388.756858,0.305379
389.069448,0.305687
389.382038,0.306002
389.694628,0.306324
390.007218,0.306654
390.319808,0.306991
390.632398,0.307335
390.944988,0.307688
391.257578,0.308049
391.570168,0.308419
391.882758,0.308798
392.195348,0.309185
392.507938,0.309582
392.820528,0.309989
393.133118,0.310406
393.445708,0.310834
