# rshift,intensity
80.694990,0.260467
81.008200,0.260469
81.321411,0.260470
81.634622,0.260471
81.947832,0.260472
82.261043,0.260473
82.574253,0.260474
82.887464,0.260476
83.200674,0.260477
83.513885,0.260478
83.827095,0.260479
84.140306,0.260480
84.453516,0.260482
84.766727,0.260483
85.079937,0.260484
85.393148,0.260485
85.706358,0.260486
86.019569,0.260488
86.332779,0.260489
86.645990,0.260490
86.959200,0.260491
87.272411,0.260493
87.585621,0.260494
87.898832,0.260495
88.212042,0.260496
88.525253,0.260498
88.838464,0.260499
89.151674,0.260500
89.464885,0.260501
89.778095,0.260502
90.091306,0.260504
90.404516,0.260505
90.717727,0.260506
91.030937,0.260508
91.344148,0.260509
91.657358,0.260510
91.970569,0.260511
92.283779,0.260513
92.596990,0.260514
92.910200,0.260515
93.223411,0.260516
93.536621,0.260518
93.849832,0.260519
94.163042,0.260520
94.476253,0.260522
94.789463,0.260523
95.102674,0.260524
95.415884,0.260525
95.729095,0.260527
96.042305,0.260528
96.355516,0.260529
96.668727,0.260531
96.981937,0.260532
97.295148,0.260533
97.608358,0.260535
97.921569,0.260536
98.234779,0.260537
98.547990,0.260539
98.861200,0.260540
99.174411,0.260541
99.487621,0.260543
99.800832,0.260544
100.114042,0.260545
100.427253,0.260547
100.740463,0.260548
101.053674,0.260549
101.366884,0.260551
101.680095,0.260552
101.993305,0.260554
102.306516,0.260555
102.619726,0.260556
102.932937,0.260558
103.246147,0.260559
103.559358,0.260560
103.872569,0.260562
104.185779,0.260563
104.498990,0.260565
104.812200,0.260566
105.125411,0.260567
105.438621,0.260569
105.751832,0.260570
106.065042,0.260572
106.378253,0.260573
106.691463,0.260575
107.004674,0.260576
107.317884,0.260577
107.631095,0.260579
107.944305,0.260580
108.257516,0.260582
108.570726,0.260583
108.883937,0.260585
109.197147,0.260586
109.510358,0.260588
109.823568,0.260589
110.136779,0.260590
110.449989,0.260592
110.763200,0.260593
111.076411,0.260595
111.389621,0.260596
111.702832,0.260598
112.016042,0.260599
112.329253,0.260601
112.642463,0.260602
112.955674,0.260604
113.268884,0.260605
113.582095,0.260607
113.895305,0.260608
114.208516,0.260610
114.521726,0.260611
114.834937,0.260613
115.148147,0.260614
115.461358,0.260616
115.774568,0.260617
116.087779,0.260619
116.400989,0.260620
116.714200,0.260622
117.027410,0.260624
117.340621,0.260625
117.653831,0.260627
117.967042,0.260628
118.280252,0.260630
118.593463,0.260631
118.906674,0.260633
119.219884,0.260634
119.533095,0.260636
119.846305,0.260638
120.159516,0.260639
120.472726,0.260641
120.785937,0.260642
121.099147,0.260644
121.412358,0.260646
121.725568,0.260647
122.038779,0.260649
122.351989,0.260650
122.665200,0.260652
122.978410,0.260654
123.291621,0.260655
123.604831,0.260657
123.918042,0.260659
124.231252,0.260660
124.544463,0.260662
124.857673,0.260663
125.170884,0.260665
125.484094,0.260667
125.797305,0.260668
126.110516,0.260670
126.423726,0.260672
126.736937,0.260673
127.050147,0.260675
127.363358,0.260677
127.676568,0.260678
127.989779,0.260680
128.302989,0.260682
128.616200,0.260684
128.929410,0.260685
129.242621,0.260687
129.555831,0.260689
129.869042,0.260690
130.182252,0.260692
130.495463,0.260694
130.808673,0.260696
131.121884,0.260697
131.435094,0.260699
131.748305,0.260701
132.061515,0.260703
132.374726,0.260704
132.687936,0.260706
133.001147,0.260708
133.314357,0.260710
133.627568,0.260711
133.940779,0.260713
134.253989,0.260715
134.567200,0.260717
134.880410,0.260719
135.193621,0.260720
135.506831,0.260722
135.820042,0.260724
136.133252,0.260726
136.446463,0.260728
136.759673,0.260729
137.072884,0.260731
137.386094,0.260733
137.699305,0.260735
138.012515,0.260737
138.325726,0.260739
138.638936,0.260740
138.952147,0.260742
139.265357,0.260744
139.578568,0.260746
139.891778,0.260748
140.204989,0.260750
140.518199,0.260752
140.831410,0.260754
141.144621,0.260755
141.457831,0.260757
141.771042,0.260759
142.084252,0.260761
142.397463,0.260763
142.710673,0.260765
143.023884,0.260767
143.337094,0.260769
143.650305,0.260771
143.963515,0.260773
144.276726,0.260775
144.589936,0.260777
144.903147,0.260779
145.216357,0.260781
145.529568,0.260783
145.842778,0.260785
146.155989,0.260786
146.469199,0.260788
146.782410,0.260790
147.095620,0.260792
147.408831,0.260794
147.722041,0.260796
148.035252,0.260798
148.348463,0.260800
148.661673,0.260803
148.974884,0.260805
149.288094,0.260807
149.601305,0.260809
149.914515,0.260811
150.227726,0.260813
150.540936,0.260815
150.854147,0.260817
151.167357,0.260819
151.480568,0.260821
151.793778,0.260823
152.106989,0.260825
152.420199,0.260827
152.733410,0.260829
153.046620,0.260831
153.359831,0.260834
153.673041,0.260836
153.986252,0.260838
154.299462,0.260840
154.612673,0.260842
154.925883,0.260844
155.239094,0.260846
155.552304,0.260849
155.865515,0.260851
156.178726,0.260853
156.491936,0.260855
156.805147,0.260857
157.118357,0.260859
157.431568,0.260862
157.744778,0.260864
158.057989,0.260866
158.371199,0.260868
158.684410,0.260870
158.997620,0.260873
159.310831,0.260875
159.624041,0.260877
159.937252,0.260879
160.250462,0.260882
160.563673,0.260884
160.876883,0.260886
161.190094,0.260888
161.503304,0.260891
161.816515,0.260893
162.129725,0.260895
162.442936,0.260898
162.756146,0.260900
163.069357,0.260902
163.382568,0.260905
163.695778,0.260907
164.008989,0.260909
164.322199,0.260912
164.635410,0.260914
164.948620,0.260916
165.261831,0.260919
165.575041,0.260921
165.888252,0.260923
166.201462,0.260926
166.514673,0.260928
166.827883,0.260931
167.141094,0.260933
167.454304,0.260935
167.767515,0.260938
168.080725,0.260940
168.393936,0.260943
168.707146,0.260945
169.020357,0.260947
169.333567,0.260950
169.646778,0.260952
169.959988,0.260955
170.273199,0.260957
170.586410,0.260960
170.899620,0.260962
171.212831,0.260965
171.526041,0.260967
171.839252,0.260970
172.152462,0.260972
172.465673,0.260975
172.778883,0.260977
173.092094,0.260980
173.405304,0.260983
173.718515,0.260985
174.031725,0.260988
174.344936,0.260990
174.658146,0.260993
174.971357,0.260995
175.284567,0.260998
175.597778,0.261001
175.910988,0.261003
176.224199,0.261006
176.537409,0.261009
176.850620,0.261011
177.163830,0.261014
177.477041,0.261017
177.790251,0.261019
178.103462,0.261022
178.416673,0.261025
178.729883,0.261027
179.043094,0.261030
179.356304,0.261033
179.669515,0.261035
179.982725,0.261038
180.295936,0.261041
180.609146,0.261044
180.922357,0.261046
181.235567,0.261049
181.548778,0.261052
181.861988,0.261055
182.175199,0.261057
182.488409,0.261060
182.801620,0.261063
183.114830,0.261066
183.428041,0.261069
183.741251,0.261072
184.054462,0.261074
184.367672,0.261077
184.680883,0.261080
184.994093,0.261083
185.307304,0.261086
185.620515,0.261089
185.933725,0.261092
186.246936,0.261095
186.560146,0.261097
186.873357,0.261100
187.186567,0.261103
187.499778,0.261106
187.812988,0.261109
188.126199,0.261112
188.439409,0.261115
188.752620,0.261118
189.065830,0.261121
189.379041,0.261124
189.692251,0.261127
190.005462,0.261130
190.318672,0.261133
190.631883,0.261136
190.945093,0.261139
191.258304,0.261142
191.571514,0.261146
191.884725,0.261149
192.197935,0.261152
192.511146,0.261155
192.824357,0.261158
193.137567,0.261161
193.450778,0.261164
193.763988,0.261167
194.077199,0.261171
194.390409,0.261174
194.703620,0.261177
195.016830,0.261180
195.330041,0.261183
195.643251,0.261186
195.956462,0.261190
196.269672,0.261193
196.582883,0.261196
196.896093,0.261199
197.209304,0.261203
197.522514,0.261206
197.835725,0.261209
198.148935,0.261213
198.462146,0.261216
198.775356,0.261219
199.088567,0.261223
199.401777,0.261226
199.714988,0.261229
200.028198,0.261233
200.341409,0.261236
200.654620,0.261239
200.967830,0.261243
201.281041,0.261246
201.594251,0.261250
201.907462,0.261253
202.220672,0.261257
202.533883,0.261260
202.847093,0.261264
203.160304,0.261267
203.473514,0.261270
203.786725,0.261274
204.099935,0.261278
204.413146,0.261281
204.726356,0.261285
205.039567,0.261288
205.352777,0.261292
205.665988,0.261295
205.979198,0.261299
206.292409,0.261303
206.605619,0.261306
206.918830,0.261310
207.232040,0.261313
207.545251,0.261317
207.858462,0.261321
208.171672,0.261325
208.484883,0.261328
208.798093,0.261332
209.111304,0.261336
209.424514,0.261339
209.737725,0.261343
210.050935,0.261347
210.364146,0.261351
210.677356,0.261355
210.990567,0.261358
211.303777,0.261362
211.616988,0.261366
211.930198,0.261370
212.243409,0.261374
212.556619,0.261378
212.869830,0.261382
213.183040,0.261385
213.496251,0.261389
213.809461,0.261393
214.122672,0.261397
214.435882,0.261401
214.749093,0.261405
215.062304,0.261409
215.375514,0.261413
215.688725,0.261417
216.001935,0.261421
216.315146,0.261425
216.628356,0.261429
216.941567,0.261434
217.254777,0.261438
217.567988,0.261442
217.881198,0.261446
218.194409,0.261450
218.507619,0.261454
218.820830,0.261458
219.134040,0.261463
219.447251,0.261467
219.760461,0.261471
220.073672,0.261475
220.386882,0.261480
220.700093,0.261484
221.013303,0.261488
221.326514,0.261492
221.639724,0.261497
221.952935,0.261501
222.266145,0.261505
222.579356,0.261510
222.892567,0.261514
223.205777,0.261519
223.518988,0.261523
223.832198,0.261528
224.145409,0.261532
224.458619,0.261536
224.771830,0.261541
225.085040,0.261545
225.398251,0.261550
225.711461,0.261555
226.024672,0.261559
226.337882,0.261564
226.651093,0.261568
226.964303,0.261573
227.277514,0.261578
227.590724,0.261582
227.903935,0.261587
228.217145,0.261592
228.530356,0.261596
228.843566,0.261601
229.156777,0.261606
229.469987,0.261611
229.783198,0.261615
230.096409,0.261620
230.409619,0.261625
230.722830,0.261630
231.036040,0.261635
231.349251,0.261639
231.662461,0.261644
231.975672,0.261649
232.288882,0.261654
232.602093,0.261659
232.915303,0.261664
233.228514,0.261669
233.541724,0.261674
233.854935,0.261679
234.168145,0.261684
234.481356,0.261689
234.794566,0.261695
235.107777,0.261700
235.420987,0.261705
235.734198,0.261710
236.047408,0.261715
236.360619,0.261720
236.673829,0.261726
236.987040,0.261731
237.300251,0.261736
237.613461,0.261741
237.926672,0.261747
238.239882,0.261752
238.553093,0.261757
238.866303,0.261763
239.179514,0.261768
239.492724,0.261774
239.805935,0.261779
240.119145,0.261785
240.432356,0.261790
240.745566,0.261796
241.058777,0.261801
241.371987,0.261807
241.685198,0.261812
241.998408,0.261818
242.311619,0.261823
242.624829,0.261829
242.938040,0.261835
243.251250,0.261841
243.564461,0.261846
243.877671,0.261852
244.190882,0.261858
244.504092,0.261864
244.817303,0.261869
245.130514,0.261875
245.443724,0.261881
245.756935,0.261887
246.070145,0.261893
246.383356,0.261899
246.696566,0.261905
247.009777,0.261911
247.322987,0.261917
247.636198,0.261923
247.949408,0.261929
248.262619,0.261935
248.575829,0.261941
248.889040,0.261948
249.202250,0.261954
249.515461,0.261960
249.828671,0.261966
250.141882,0.261973
250.455092,0.261979
250.768303,0.261985
251.081513,0.261992
251.394724,0.261998
251.707934,0.262004
252.021145,0.262011
252.334356,0.262017
252.647566,0.262024
252.960777,0.262030
253.273987,0.262037
253.587198,0.262043
253.900408,0.262050
254.213619,0.262057
254.526829,0.262063
254.840040,0.262070
255.153250,0.262077
255.466461,0.262084
255.779671,0.262090
256.092882,0.262097
256.406092,0.262104
256.719303,0.262111
257.032513,0.262118
257.345724,0.262125
257.658934,0.262132
257.972145,0.262139
258.285355,0.262146
258.598566,0.262153
258.911776,0.262160
259.224987,0.262167
259.538198,0.262175
259.851408,0.262182
260.164619,0.262189
260.477829,0.262196
260.791040,0.262204
261.104250,0.262211
261.417461,0.262218
261.730671,0.262226
262.043882,0.262233
262.357092,0.262241
262.670303,0.262248
262.983513,0.262256
263.296724,0.262264
263.609934,0.262271
263.923145,0.262279
264.236355,0.262287
264.549566,0.262294
264.862776,0.262302
265.175987,0.262310
265.489197,0.262318
265.802408,0.262326
266.115618,0.262334
266.428829,0.262342
266.742039,0.262350
267.055250,0.262358
267.368461,0.262366
267.681671,0.262374
267.994882,0.262382
268.308092,0.262391
268.621303,0.262399
268.934513,0.262407
269.247724,0.262415
269.560934,0.262424
269.874145,0.262432
270.187355,0.262441
270.500566,0.262449
270.813776,0.262458
271.126987,0.262466
271.440197,0.262475
271.753408,0.262484
272.066618,0.262493
272.379829,0.262501
272.693039,0.262510
273.006250,0.262519
273.319460,0.262528
273.632671,0.262537
273.945881,0.262546
274.259092,0.262555
274.572303,0.262564
274.885513,0.262573
275.198724,0.262582
275.511934,0.262592
275.825145,0.262601
276.138355,0.262610
276.451566,0.262620
276.764776,0.262629
277.077987,0.262639
277.391197,0.262648
277.704408,0.262658
278.017618,0.262667
278.330829,0.262677
278.644039,0.262687
278.957250,0.262697
279.270460,0.262706
279.583671,0.262716
279.896881,0.262726
280.210092,0.262736
280.523302,0.262746
280.836513,0.262756
281.149723,0.262767
281.462934,0.262777
281.776144,0.262787
282.089355,0.262797
282.402566,0.262808
282.715776,0.262818
283.028987,0.262829
283.342197,0.262839
283.655408,0.262850
283.968618,0.262860
284.281829,0.262871
284.595039,0.262882
284.908250,0.262893
285.221460,0.262904
285.534671,0.262915
285.847881,0.262926
286.161092,0.262937
286.474302,0.262948
286.787513,0.262959
287.100723,0.262970
287.413934,0.262982
287.727144,0.262993
288.040355,0.263005
288.353565,0.263016
288.666776,0.263028
288.979986,0.263039
289.293197,0.263051
289.606408,0.263063
289.919618,0.263075
290.232829,0.263087
290.546039,0.263099
290.859250,0.263111
291.172460,0.263123
291.485671,0.263135
291.798881,0.263148
292.112092,0.263160
292.425302,0.263172
292.738513,0.263185
293.051723,0.263197
293.364934,0.263210
293.678144,0.263223
293.991355,0.263236
294.304565,0.263248
294.617776,0.263261
294.930986,0.263274
295.244197,0.263288
295.557407,0.263301
295.870618,0.263314
296.183828,0.263327
296.497039,0.263341
296.810250,0.263354
297.123460,0.263368
297.436671,0.263382
297.749881,0.263395
298.063092,0.263409
298.376302,0.263423
298.689513,0.263437
299.002723,0.263451
299.315934,0.263465
299.629144,0.263480
299.942355,0.263494
300.255565,0.263508
300.568776,0.263523
300.881986,0.263538
301.195197,0.263552
301.508407,0.263567
301.821618,0.263582
302.134828,0.263597
302.448039,0.263612
302.761249,0.263627
303.074460,0.263643
303.387670,0.263658
303.700881,0.263673
304.014091,0.263689
304.327302,0.263705
304.640513,0.263721
304.953723,0.263736
305.266934,0.263752
305.580144,0.263768
305.893355,0.263785
306.206565,0.263801
306.519776,0.263817
306.832986,0.263834
307.146197,0.263851
307.459407,0.263867
307.772618,0.263884
308.085828,0.263901
308.399039,0.263918
308.712249,0.263935
309.025460,0.263953
309.338670,0.263970
309.651881,0.263988
309.965091,0.264005
310.278302,0.264023
310.591512,0.264041
310.904723,0.264059
311.217933,0.264077
311.531144,0.264095
311.844355,0.264114
312.157565,0.264132
312.470776,0.264151
312.783986,0.264170
313.097197,0.264189
313.410407,0.264208
313.723618,0.264227
314.036828,0.264246
314.350039,0.264266
314.663249,0.264285
314.976460,0.264305
315.289670,0.264325
315.602881,0.264345
315.916091,0.264365
316.229302,0.264385
316.542512,0.264406
316.855723,0.264426
317.168933,0.264447
317.482144,0.264468
317.795354,0.264489
318.108565,0.264510
318.421775,0.264532
318.734986,0.264553
319.048197,0.264575
319.361407,0.264596
319.674618,0.264618
319.987828,0.264641
320.301039,0.264663
320.614249,0.264685
320.927460,0.264708
321.240670,0.264731
321.553881,0.264754
321.867091,0.264777
322.180302,0.264800
322.493512,0.264824
322.806723,0.264848
323.119933,0.264871
323.433144,0.264895
323.746354,0.264920
324.059565,0.264944
324.372775,0.264969
324.685986,0.264994
324.999196,0.265019
325.312407,0.265044
325.625617,0.265069
325.938828,0.265095
326.252038,0.265121
326.565249,0.265147
326.878460,0.265173
327.191670,0.265199
327.504881,0.265226
327.818091,0.265253
328.131302,0.265280
328.444512,0.265307
328.757723,0.265335
329.070933,0.265362
329.384144,0.265390
329.697354,0.265419
330.010565,0.265447
330.323775,0.265476
330.636986,0.265504
330.950196,0.265534
331.263407,0.265563
331.576617,0.265593
331.889828,0.265623
332.203038,0.265653
332.516249,0.265683
332.829459,0.265714
333.142670,0.265745
333.455880,0.265776
333.769091,0.265807
334.082302,0.265839
334.395512,0.265871
334.708723,0.265903
335.021933,0.265936
335.335144,0.265968
335.648354,0.266002
335.961565,0.266035
336.274775,0.266069
336.587986,0.266103
336.901196,0.266137
337.214407,0.266172
337.527617,0.266207
337.840828,0.266242
338.154038,0.266277
338.467249,0.266313
338.780459,0.266349
339.093670,0.266386
339.406880,0.266423
339.720091,0.266460
340.033301,0.266498
340.346512,0.266535
340.659722,0.266574
340.972933,0.266612
341.286144,0.266651
341.599354,0.266691
341.912565,0.266730
342.225775,0.266770
342.538986,0.266811
342.852196,0.266852
343.165407,0.266893
343.478617,0.266935
343.791828,0.266977
344.105038,0.267019
344.418249,0.267062
344.731459,0.267105
345.044670,0.267149
345.357880,0.267193
345.671091,0.267238
345.984301,0.267283
346.297512,0.267328
346.610722,0.267374
346.923933,0.267421
347.237143,0.267467
347.550354,0.267515
347.863564,0.267563
348.176775,0.267611
348.489985,0.267660
348.803196,0.267709
349.116407,0.267759
349.429617,0.267809
349.742828,0.267860
350.056038,0.267912
350.369249,0.267964
350.682459,0.268016
350.995670,0.268069
351.308880,0.268123
351.622091,0.268177
351.935301,0.268232
352.248512,0.268287
352.561722,0.268343
352.874933,0.268400
353.188143,0.268457
353.501354,0.268515
353.814564,0.268573
354.127775,0.268633
354.440985,0.268692
354.754196,0.268753
355.067406,0.268814
355.380617,0.268876
355.693827,0.268939
356.007038,0.269002
356.320249,0.269066
356.633459,0.269131
356.946670,0.269196
357.259880,0.269262
357.573091,0.269329
357.886301,0.269397
358.199512,0.269466
358.512722,0.269535
358.825933,0.269606
359.139143,0.269677
359.452354,0.269749
359.765564,0.269822
360.078775,0.269895
360.391985,0.269970
360.705196,0.270046
361.018406,0.270122
361.331617,0.270200
361.644827,0.270278
361.958038,0.270358
362.271248,0.270438
362.584459,0.270519
362.897669,0.270602
363.210880,0.270685
363.524091,0.270770
363.837301,0.270856
364.150512,0.270943
364.463722,0.271030
364.776933,0.271120
365.090143,0.271210
365.403354,0.271301
365.716564,0.271394
366.029775,0.271488
366.342985,0.271583
366.656196,0.271680
366.969406,0.271778
367.282617,0.271877
367.595827,0.271977
367.909038,0.272079
368.222248,0.272183
368.535459,0.272287
368.848669,0.272394
369.161880,0.272501
369.475090,0.272611
369.788301,0.272722
370.101511,0.272834
370.414722,0.272948
370.727932,0.273064
371.041143,0.273182
371.354354,0.273301
371.667564,0.273422
371.980775,0.273545
372.293985,0.273669
372.607196,0.273796
372.920406,0.273924
373.233617,0.274055
373.546827,0.274187
373.860038,0.274322
374.173248,0.274458
374.486459,0.274597
374.799669,0.274738
375.112880,0.274881
375.426090,0.275026
375.739301,0.275174
376.052511,0.275324
376.365722,0.275477
376.678932,0.275632
376.992143,0.275790
377.305353,0.275950
377.618564,0.276113
377.931774,0.276279
378.244985,0.276447
378.558196,0.276619
378.871406,0.276793
379.184617,0.276970
379.497827,0.277151
379.811038,0.277334
380.124248,0.277521
380.437459,0.277711
380.750669,0.277904
381.063880,0.278101
381.377090,0.278302
381.690301,0.278506
382.003511,0.278714
382.316722,0.278926
382.629932,0.279142
382.943143,0.279361
383.256353,0.279585
383.569564,0.279813
383.882774,0.280046
384.195985,0.280283
384.509195,0.280524
384.822406,0.280771
385.135616,0.281022
385.448827,0.281278
385.762038,0.281540
386.075248,0.281806
386.388459,0.282078
386.701669,0.282356
387.014880,0.282639
387.328090,0.282928
387.641301,0.283224
387.954511,0.283525
388.267722,0.283833
388.580932,0.284148
388.894143,0.284469
389.207353,0.284798
389.520564,0.285133
389.833774,0.285476
390.146985,0.285827
390.460195,0.286186
390.773406,0.286552
391.086616,0.286928
391.399827,0.287311
391.713037,0.287704
392.026248,0.288106
392.339458,0.288518
392.652669,0.288940
392.965879,0.289371
393.279090,0.289813
393.592301,0.290266
393.905511,0.290731
394.218722,0.291207
