# rshift,intensity
81.302457,0.270852
81.614121,0.270853
81.925785,0.270854
82.237449,0.270854
82.549112,0.270855
82.860776,0.270856
83.172440,0.270857
83.484104,0.270858
83.795768,0.270858
84.107431,0.270859
84.419095,0.270860
84.730759,0.270861
85.042423,0.270862
85.354087,0.270862
85.665750,0.270863
85.977414,0.270864
86.289078,0.270865
86.600742,0.270866
86.912406,0.270866
87.224069,0.270867
87.535733,0.270868
87.847397,0.270869
88.159061,0.270870
88.470725,0.270871
88.782388,0.270871
89.094052,0.270872
89.405716,0.270873
89.717380,0.270874
90.029044,0.270875
90.340707,0.270876
90.652371,0.270876
90.964035,0.270877
91.275699,0.270878
91.587363,0.270879
91.899026,0.270880
92.210690,0.270881
92.522354,0.270882
92.834018,0.270882
93.145682,0.270883
93.457346,0.270884
93.769009,0.270885
94.080673,0.270886
94.392337,0.270887
94.704001,0.270888
95.015665,0.270889
95.327328,0.270889
95.638992,0.270890
95.950656,0.270891
96.262320,0.270892
96.573984,0.270893
96.885647,0.270894
97.197311,0.270895
97.508975,0.270896
97.820639,0.270897
98.132303,0.270897
98.443966,0.270898
98.755630,0.270899
99.067294,0.270900
99.378958,0.270901
99.690622,0.270902
100.002285,0.270903
100.313949,0.270904
100.625613,0.270905
100.937277,0.270906
101.248941,0.270907
101.560604,0.270907
101.872268,0.270908
102.183932,0.270909
102.495596,0.270910
102.807260,0.270911
103.118923,0.270912
103.430587,0.270913
103.742251,0.270914
104.053915,0.270915
104.365579,0.270916
104.677242,0.270917
104.988906,0.270918
105.300570,0.270919
105.612234,0.270920
105.923898,0.270921
106.235561,0.270922
106.547225,0.270923
106.858889,0.270924
107.170553,0.270925
107.482217,0.270925
107.793880,0.270926
108.105544,0.270927
108.417208,0.270928
108.728872,0.270929
109.040536,0.270930
109.352199,0.270931
109.663863,0.270932
109.975527,0.270933
110.287191,0.270934
110.598855,0.270935
110.910518,0.270936
111.222182,0.270937
111.533846,0.270938
111.845510,0.270939
112.157174,0.270940
112.468837,0.270941
112.780501,0.270942
113.092165,0.270943
113.403829,0.270944
113.715493,0.270945
114.027156,0.270946
114.338820,0.270947
114.650484,0.270949
114.962148,0.270950
115.273812,0.270951
115.585475,0.270952
115.897139,0.270953
116.208803,0.270954
116.520467,0.270955
116.832131,0.270956
117.143794,0.270957
117.455458,0.270958
117.767122,0.270959
118.078786,0.270960
118.390450,0.270961
118.702114,0.270962
119.013777,0.270963
119.325441,0.270964
119.637105,0.270965
119.948769,0.270966
120.260433,0.270968
120.572096,0.270969
120.883760,0.270970
121.195424,0.270971
121.507088,0.270972
121.818752,0.270973
122.130415,0.270974
122.442079,0.270975
122.753743,0.270976
123.065407,0.270977
123.377071,0.270979
123.688734,0.270980
124.000398,0.270981
124.312062,0.270982
124.623726,0.270983
124.935390,0.270984
125.247053,0.270985
125.558717,0.270986
125.870381,0.270988
126.182045,0.270989
126.493709,0.270990
126.805372,0.270991
127.117036,0.270992
127.428700,0.270993
127.740364,0.270994
128.052028,0.270996
128.363691,0.270997
128.675355,0.270998
128.987019,0.270999
129.298683,0.271000
129.610347,0.271001
129.922010,0.271003
130.233674,0.271004
130.545338,0.271005
130.857002,0.271006
131.168666,0.271007
131.480329,0.271009
131.791993,0.271010
132.103657,0.271011
132.415321,0.271012
132.726985,0.271013
133.038648,0.271015
133.350312,0.271016
133.661976,0.271017
133.973640,0.271018
134.285304,0.271019
134.596967,0.271021
134.908631,0.271022
135.220295,0.271023
135.531959,0.271024
135.843623,0.271026
136.155286,0.271027
136.466950,0.271028
136.778614,0.271029
137.090278,0.271031
137.401942,0.271032
137.713605,0.271033
138.025269,0.271034
138.336933,0.271036
138.648597,0.271037
138.960261,0.271038
139.271924,0.271040
139.583588,0.271041
139.895252,0.271042
140.206916,0.271043
140.518580,0.271045
140.830243,0.271046
141.141907,0.271047
141.453571,0.271049
141.765235,0.271050
142.076899,0.271051
142.388562,0.271053
142.700226,0.271054
143.011890,0.271055
143.323554,0.271057
143.635218,0.271058
143.946882,0.271059
144.258545,0.271061
144.570209,0.271062
144.881873,0.271063
145.193537,0.271065
145.505201,0.271066
145.816864,0.271067
146.128528,0.271069
146.440192,0.271070
146.751856,0.271072
147.063520,0.271073
147.375183,0.271074
147.686847,0.271076
147.998511,0.271077
148.310175,0.271079
148.621839,0.271080
148.933502,0.271081
149.245166,0.271083
149.556830,0.271084
149.868494,0.271086
150.180158,0.271087
150.491821,0.271088
150.803485,0.271090
151.115149,0.271091
151.426813,0.271093
151.738477,0.271094
152.050140,0.271096
152.361804,0.271097
152.673468,0.271099
152.985132,0.271100
153.296796,0.271101
153.608459,0.271103
153.920123,0.271104
154.231787,0.271106
154.543451,0.271107
154.855115,0.271109
155.166778,0.271110
155.478442,0.271112
155.790106,0.271113
156.101770,0.271115
156.413434,0.271116
156.725097,0.271118
157.036761,0.271119
157.348425,0.271121
157.660089,0.271122
157.971753,0.271124
158.283416,0.271126
158.595080,0.271127
158.906744,0.271129
159.218408,0.271130
159.530072,0.271132
159.841735,0.271133
160.153399,0.271135
160.465063,0.271136
160.776727,0.271138
161.088391,0.271140
161.400054,0.271141
161.711718,0.271143
162.023382,0.271144
162.335046,0.271146
162.646710,0.271148
162.958373,0.271149
163.270037,0.271151
163.581701,0.271153
163.893365,0.271154
164.205029,0.271156
164.516692,0.271157
164.828356,0.271159
165.140020,0.271161
165.451684,0.271162
165.763348,0.271164
166.075011,0.271166
166.386675,0.271167
166.698339,0.271169
167.010003,0.271171
167.321667,0.271172
167.633330,0.271174
167.944994,0.271176
168.256658,0.271178
168.568322,0.271179
168.879986,0.271181
169.191650,0.271183
169.503313,0.271184
169.814977,0.271186
170.126641,0.271188
170.438305,0.271190
170.749969,0.271191
171.061632,0.271193
171.373296,0.271195
171.684960,0.271197
171.996624,0.271198
172.308288,0.271200
172.619951,0.271202
172.931615,0.271204
173.243279,0.271206
173.554943,0.271207
173.866607,0.271209
174.178270,0.271211
174.489934,0.271213
174.801598,0.271215
175.113262,0.271216
175.424926,0.271218
175.736589,0.271220
176.048253,0.271222
176.359917,0.271224
176.671581,0.271226
176.983245,0.271228
177.294908,0.271229
177.606572,0.271231
177.918236,0.271233
178.229900,0.271235
178.541564,0.271237
178.853227,0.271239
179.164891,0.271241
179.476555,0.271243
179.788219,0.271245
180.099883,0.271247
180.411546,0.271249
180.723210,0.271251
181.034874,0.271252
181.346538,0.271254
181.658202,0.271256
181.969865,0.271258
182.281529,0.271260
182.593193,0.271262
182.904857,0.271264
183.216521,0.271266
183.528184,0.271268
183.839848,0.271270
184.151512,0.271272
184.463176,0.271274
184.774840,0.271276
185.086503,0.271278
185.398167,0.271281
185.709831,0.271283
186.021495,0.271285
186.333159,0.271287
186.644822,0.271289
186.956486,0.271291
187.268150,0.271293
187.579814,0.271295
187.891478,0.271297
188.203141,0.271299
188.514805,0.271301
188.826469,0.271304
189.138133,0.271306
189.449797,0.271308
189.761460,0.271310
190.073124,0.271312
190.384788,0.271314
190.696452,0.271316
191.008116,0.271319
191.319779,0.271321
191.631443,0.271323
191.943107,0.271325
192.254771,0.271327
192.566435,0.271330
192.878098,0.271332
193.189762,0.271334
193.501426,0.271336
193.813090,0.271339
194.124754,0.271341
194.436418,0.271343
194.748081,0.271345
195.059745,0.271348
195.371409,0.271350
195.683073,0.271352
195.994737,0.271355
196.306400,0.271357
196.618064,0.271359
196.929728,0.271362
197.241392,0.271364
197.553056,0.271366
197.864719,0.271369
198.176383,0.271371
198.488047,0.271373
198.799711,0.271376
199.111375,0.271378
199.423038,0.271381
199.734702,0.271383
200.046366,0.271385
200.358030,0.271388
200.669694,0.271390
200.981357,0.271393
201.293021,0.271395
201.604685,0.271398
201.916349,0.271400
202.228013,0.271403
202.539676,0.271405
202.851340,0.271408
203.163004,0.271410
203.474668,0.271413
203.786332,0.271415
204.097995,0.271418
204.409659,0.271420
204.721323,0.271423
205.032987,0.271425
205.344651,0.271428
205.656314,0.271430
205.967978,0.271433
206.279642,0.271436
206.591306,0.271438
206.902970,0.271441
207.214633,0.271444
207.526297,0.271446
207.837961,0.271449
208.149625,0.271452
208.461289,0.271454
208.772952,0.271457
209.084616,0.271460
209.396280,0.271462
209.707944,0.271465
210.019608,0.271468
210.331271,0.271470
210.642935,0.271473
210.954599,0.271476
211.266263,0.271479
211.577927,0.271482
211.889590,0.271484
212.201254,0.271487
212.512918,0.271490
212.824582,0.271493
213.136246,0.271496
213.447909,0.271498
213.759573,0.271501
214.071237,0.271504
214.382901,0.271507
214.694565,0.271510
215.006228,0.271513
215.317892,0.271516
215.629556,0.271519
215.941220,0.271522
216.252884,0.271525
216.564547,0.271527
216.876211,0.271530
217.187875,0.271533
217.499539,0.271536
217.811203,0.271539
218.122866,0.271542
218.434530,0.271545
218.746194,0.271549
219.057858,0.271552
219.369522,0.271555
219.681186,0.271558
219.992849,0.271561
220.304513,0.271564
220.616177,0.271567
220.927841,0.271570
221.239505,0.271573
221.551168,0.271576
221.862832,0.271580
222.174496,0.271583
222.486160,0.271586
222.797824,0.271589
223.109487,0.271592
223.421151,0.271596
223.732815,0.271599
224.044479,0.271602
224.356143,0.271605
224.667806,0.271609
224.979470,0.271612
225.291134,0.271615
225.602798,0.271619
225.914462,0.271622
226.226125,0.271625
226.537789,0.271629
226.849453,0.271632
227.161117,0.271636
227.472781,0.271639
227.784444,0.271642
228.096108,0.271646
228.407772,0.271649
228.719436,0.271653
229.031100,0.271656
229.342763,0.271660
229.654427,0.271663
229.966091,0.271667
230.277755,0.271670
230.589419,0.271674
230.901082,0.271677
231.212746,0.271681
231.524410,0.271685
231.836074,0.271688
232.147738,0.271692
232.459401,0.271695
232.771065,0.271699
233.082729,0.271703
233.394393,0.271707
233.706057,0.271710
234.017720,0.271714
234.329384,0.271718
234.641048,0.271721
234.952712,0.271725
235.264376,0.271729
235.576039,0.271733
235.887703,0.271737
236.199367,0.271741
236.511031,0.271744
236.822695,0.271748
237.134358,0.271752
237.446022,0.271756
237.757686,0.271760
238.069350,0.271764
238.381014,0.271768
238.692677,0.271772
239.004341,0.271776
239.316005,0.271780
239.627669,0.271784
239.939333,0.271788
240.250996,0.271792
240.562660,0.271796
240.874324,0.271800
241.185988,0.271804
241.497652,0.271809
241.809315,0.271813
242.120979,0.271817
242.432643,0.271821
242.744307,0.271825
243.055971,0.271830
243.367634,0.271834
243.679298,0.271838
243.990962,0.271842
244.302626,0.271847
244.614290,0.271851
244.925954,0.271855
245.237617,0.271860
245.549281,0.271864
245.860945,0.271869
246.172609,0.271873
246.484273,0.271877
246.795936,0.271882
247.107600,0.271886
247.419264,0.271891
247.730928,0.271895
248.042592,0.271900
248.354255,0.271905
248.665919,0.271909
248.977583,0.271914
249.289247,0.271918
249.600911,0.271923
249.912574,0.271928
250.224238,0.271933
250.535902,0.271937
250.847566,0.271942
251.159230,0.271947
251.470893,0.271952
251.782557,0.271956
252.094221,0.271961
252.405885,0.271966
252.717549,0.271971
253.029212,0.271976
253.340876,0.271981
253.652540,0.271986
253.964204,0.271991
254.275868,0.271996
254.587531,0.272001
254.899195,0.272006
255.210859,0.272011
255.522523,0.272016
255.834187,0.272021
256.145850,0.272026
256.457514,0.272032
256.769178,0.272037
257.080842,0.272042
257.392506,0.272047
257.704169,0.272053
258.015833,0.272058
258.327497,0.272063
258.639161,0.272069
258.950825,0.272074
259.262488,0.272079
259.574152,0.272085
259.885816,0.272090
260.197480,0.272096
260.509144,0.272101
260.820807,0.272107
261.132471,0.272113
261.444135,0.272118
261.755799,0.272124
262.067463,0.272129
262.379126,0.272135
262.690790,0.272141
263.002454,0.272147
263.314118,0.272152
263.625782,0.272158
263.937445,0.272164
264.249109,0.272170
264.560773,0.272176
264.872437,0.272182
265.184101,0.272188
265.495764,0.272194
265.807428,0.272200
266.119092,0.272206
266.430756,0.272212
266.742420,0.272218
267.054083,0.272224
267.365747,0.272230
267.677411,0.272237
267.989075,0.272243
268.300739,0.272249
268.612402,0.272255
268.924066,0.272262
269.235730,0.272268
269.547394,0.272275
269.859058,0.272281
270.170722,0.272288
270.482385,0.272294
270.794049,0.272301
271.105713,0.272307
271.417377,0.272314
271.729041,0.272320
272.040704,0.272327
272.352368,0.272334
272.664032,0.272341
272.975696,0.272347
273.287360,0.272354
273.599023,0.272361
273.910687,0.272368
274.222351,0.272375
274.534015,0.272382
274.845679,0.272389
275.157342,0.272396
275.469006,0.272403
275.780670,0.272410
276.092334,0.272418
276.403998,0.272425
276.715661,0.272432
277.027325,0.272439
277.338989,0.272447
277.650653,0.272454
277.962317,0.272462
278.273980,0.272469
278.585644,0.272477
278.897308,0.272484
279.208972,0.272492
279.520636,0.272499
279.832299,0.272507
280.143963,0.272515
280.455627,0.272523
280.767291,0.272530
281.078955,0.272538
281.390618,0.272546
281.702282,0.272554
282.013946,0.272562
282.325610,0.272570
282.637274,0.272578
282.948937,0.272586
283.260601,0.272595
283.572265,0.272603
283.883929,0.272611
284.195593,0.272619
284.507256,0.272628
284.818920,0.272636
285.130584,0.272645
285.442248,0.272653
285.753912,0.272662
286.065575,0.272670
286.377239,0.272679
286.688903,0.272688
287.000567,0.272697
287.312231,0.272705
287.623894,0.272714
287.935558,0.272723
288.247222,0.272732
288.558886,0.272741
288.870550,0.272750
289.182213,0.272760
289.493877,0.272769
289.805541,0.272778
290.117205,0.272787
290.428869,0.272797
290.740532,0.272806
291.052196,0.272816
291.363860,0.272825
291.675524,0.272835
291.987188,0.272845
292.298851,0.272854
292.610515,0.272864
292.922179,0.272874
293.233843,0.272884
293.545507,0.272894
293.857170,0.272904
294.168834,0.272914
294.480498,0.272924
294.792162,0.272935
295.103826,0.272945
295.415490,0.272955
295.727153,0.272966
296.038817,0.272976
296.350481,0.272987
296.662145,0.272997
296.973809,0.273008
297.285472,0.273019
297.597136,0.273030
297.908800,0.273041
298.220464,0.273052
298.532128,0.273063
298.843791,0.273074
299.155455,0.273085
299.467119,0.273096
299.778783,0.273108
300.090447,0.273119
300.402110,0.273131
300.713774,0.273142
301.025438,0.273154
301.337102,0.273166
301.648766,0.273177
301.960429,0.273189
302.272093,0.273201
302.583757,0.273213
302.895421,0.273225
303.207085,0.273238
303.518748,0.273250
303.830412,0.273262
304.142076,0.273275
304.453740,0.273287
304.765404,0.273300
305.077067,0.273313
305.388731,0.273326
305.700395,0.273338
306.012059,0.273351
306.323723,0.273364
306.635386,0.273378
306.947050,0.273391
307.258714,0.273404
307.570378,0.273418
307.882042,0.273431
308.193705,0.273445
308.505369,0.273459
308.817033,0.273472
309.128697,0.273486
309.440361,0.273500
309.752024,0.273515
310.063688,0.273529
310.375352,0.273543
310.687016,0.273558
310.998680,0.273572
311.310343,0.273587
311.622007,0.273602
311.933671,0.273616
312.245335,0.273631
312.556999,0.273646
312.868662,0.273662
313.180326,0.273677
313.491990,0.273692
313.803654,0.273708
314.115318,0.273724
314.426981,0.273739
314.738645,0.273755
315.050309,0.273771
315.361973,0.273787
315.673637,0.273804
315.985300,0.273820
316.296964,0.273836
316.608628,0.273853
316.920292,0.273870
317.231956,0.273887
317.543619,0.273904
317.855283,0.273921
318.166947,0.273938
318.478611,0.273955
318.790275,0.273973
319.101938,0.273991
319.413602,0.274008
319.725266,0.274026
320.036930,0.274044
320.348594,0.274063
320.660258,0.274081
320.971921,0.274100
321.283585,0.274118
321.595249,0.274137
321.906913,0.274156
322.218577,0.274175
322.530240,0.274194
322.841904,0.274214
323.153568,0.274233
323.465232,0.274253
323.776896,0.274273
324.088559,0.274293
324.400223,0.274313
324.711887,0.274334
325.023551,0.274354
325.335215,0.274375
325.646878,0.274396
325.958542,0.274417
326.270206,0.274438
326.581870,0.274460
326.893534,0.274481
327.205197,0.274503
327.516861,0.274525
327.828525,0.274547
328.140189,0.274570
328.451853,0.274592
328.763516,0.274615
329.075180,0.274638
329.386844,0.274661
329.698508,0.274684
330.010172,0.274708
330.321835,0.274732
330.633499,0.274756
330.945163,0.274780
331.256827,0.274804
331.568491,0.274829
331.880154,0.274853
332.191818,0.274879
332.503482,0.274904
332.815146,0.274929
333.126810,0.274955
333.438473,0.274981
333.750137,0.275007
334.061801,0.275033
334.373465,0.275060
334.685129,0.275087
334.996792,0.275114
335.308456,0.275142
335.620120,0.275169
335.931784,0.275197
336.243448,0.275225
336.555111,0.275254
336.866775,0.275282
337.178439,0.275311
337.490103,0.275340
337.801767,0.275370
338.113430,0.275400
338.425094,0.275430
338.736758,0.275460
339.048422,0.275491
339.360086,0.275522
339.671749,0.275553
339.983413,0.275585
340.295077,0.275616
340.606741,0.275649
340.918405,0.275681
341.230068,0.275714
341.541732,0.275747
341.853396,0.275780
342.165060,0.275814
342.476724,0.275848
342.788387,0.275883
343.100051,0.275917
343.411715,0.275953
343.723379,0.275988
344.035043,0.276024
344.346706,0.276060
344.658370,0.276097
344.970034,0.276134
345.281698,0.276171
345.593362,0.276209
345.905026,0.276247
346.216689,0.276286
346.528353,0.276325
346.840017,0.276364
347.151681,0.276404
347.463345,0.276444
347.775008,0.276485
348.086672,0.276526
348.398336,0.276567
348.710000,0.276609
349.021664,0.276652
349.333327,0.276694
349.644991,0.276738
349.956655,0.276782
350.268319,0.276826
350.579983,0.276871
350.891646,0.276916
351.203310,0.276962
351.514974,0.277008
351.826638,0.277055
352.138302,0.277102
352.449965,0.277150
352.761629,0.277199
353.073293,0.277248
353.384957,0.277297
353.696621,0.277347
354.008284,0.277398
354.319948,0.277449
354.631612,0.277501
354.943276,0.277554
355.254940,0.277607
355.566603,0.277661
355.878267,0.277715
356.189931,0.277770
356.501595,0.277826
356.813259,0.277882
357.124922,0.277939
357.436586,0.277997
357.748250,0.278056
358.059914,0.278115
358.371578,0.278175
358.683241,0.278235
358.994905,0.278297
359.306569,0.278359
359.618233,0.278422
359.929897,0.278486
360.241560,0.278550
360.553224,0.278616
360.864888,0.278682
361.176552,0.278749
361.488216,0.278817
361.799879,0.278886
362.111543,0.278956
362.423207,0.279026
362.734871,0.279098
363.046535,0.279171
363.358198,0.279244
363.669862,0.279319
363.981526,0.279394
364.293190,0.279471
364.604854,0.279548
364.916517,0.279627
365.228181,0.279706
365.539845,0.279787
365.851509,0.279869
366.163173,0.279952
366.474836,0.280036
366.786500,0.280122
367.098164,0.280208
367.409828,0.280296
367.721492,0.280385
368.033155,0.280476
368.344819,0.280567
368.656483,0.280660
368.968147,0.280755
369.279811,0.280851
369.591474,0.280948
369.903138,0.281046
370.214802,0.281147
370.526466,0.281248
370.838130,0.281351
371.149794,0.281456
371.461457,0.281562
371.773121,0.281670
372.084785,0.281780
372.396449,0.281891
372.708113,0.282004
373.019776,0.282119
373.331440,0.282236
373.643104,0.282354
373.954768,0.282475
374.266432,0.282597
374.578095,0.282721
374.889759,0.282848
375.201423,0.282976
375.513087,0.283106
375.824751,0.283239
376.136414,0.283374
376.448078,0.283511
376.759742,0.283651
377.071406,0.283792
377.383070,0.283937
377.694733,0.284083
378.006397,0.284233
378.318061,0.284385
378.629725,0.284539
378.941389,0.284696
379.253052,0.284856
379.564716,0.285019
379.876380,0.285185
380.188044,0.285354
380.499708,0.285526
380.811371,0.285701
381.123035,0.285879
381.434699,0.286061
381.746363,0.286246
382.058027,0.286434
382.369690,0.286626
382.681354,0.286822
382.993018,0.287021
383.304682,0.287225
383.616346,0.287432
383.928009,0.287643
384.239673,0.287859
384.551337,0.288079
384.863001,0.288303
385.174665,0.288531
385.486328,0.288765
385.797992,0.289003
386.109656,0.289246
386.421320,0.289494
386.732984,0.289748
387.044647,0.290006
387.356311,0.290270
387.667975,0.290540
387.979639,0.290816
388.291303,0.291098
388.602966,0.291385
388.914630,0.291680
389.226294,0.291980
389.537958,0.292288
389.849622,0.292602
390.161285,0.292924
390.472949,0.293253
390.784613,0.293590
391.096277,0.293934
391.407941,0.294287
391.719604,0.294648
392.031268,0.295017
392.342932,0.295396
392.654596,0.295784
392.966260,0.296181
393.277923,0.296588
