# rshift,intensity
54.609825,0.076060
54.912695,0.076061
55.215565,0.076062
55.518435,0.076063
55.821305,0.076064
56.124175,0.076065
56.427044,0.076066
56.729914,0.076067
57.032784,0.076068
57.335654,0.076069
57.638524,0.076070
57.941394,0.076071
58.244264,0.076072
58.547134,0.076073
58.850004,0.076074
59.152874,0.076075
59.455744,0.076076
59.758614,0.076077
60.061483,0.076078
60.364353,0.076079
60.667223,0.076080
60.970093,0.076081
61.272963,0.076082
61.575833,0.076083
61.878703,0.076085
62.181573,0.076086
62.484443,0.076087
62.787313,0.076088
63.090183,0.076089
63.393053,0.076090
63.695922,0.076091
63.998792,0.076092
64.301662,0.076093
64.604532,0.076094
64.907402,0.076095
65.210272,0.076096
65.513142,0.076097
65.816012,0.076098
66.118882,0.076099
66.421752,0.076100
66.724622,0.076102
67.027492,0.076103
67.330361,0.076104
67.633231,0.076105
67.936101,0.076106
68.238971,0.076107
68.541841,0.076108
68.844711,0.076109
69.147581,0.076110
69.450451,0.076111
69.753321,0.076112
70.056191,0.076114
70.359061,0.076115
70.661931,0.076116
70.964800,0.076117
71.267670,0.076118
71.570540,0.076119
71.873410,0.076120
72.176280,0.076121
72.479150,0.076123
72.782020,0.076124
73.084890,0.076125
73.387760,0.076126
73.690630,0.076127
73.993500,0.076128
74.296370,0.076129
74.599239,0.076131
74.902109,0.076132
75.204979,0.076133
75.507849,0.076134
75.810719,0.076135
76.113589,0.076136
76.416459,0.076138
76.719329,0.076139
77.022199,0.076140
77.325069,0.076141
77.627939,0.076142
77.930809,0.076143
78.233678,0.076145
78.536548,0.076146
78.839418,0.076147
79.142288,0.076148
79.445158,0.076149
79.748028,0.076151
80.050898,0.076152
80.353768,0.076153
80.656638,0.076154
80.959508,0.076155
81.262378,0.076157
81.565247,0.076158
81.868117,0.076159
82.170987,0.076160
82.473857,0.076162
82.776727,0.076163
83.079597,0.076164
83.382467,0.076165
83.685337,0.076167
83.988207,0.076168
84.291077,0.076169
84.593947,0.076170
84.896817,0.076172
85.199686,0.076173
85.502556,0.076174
85.805426,0.076175
86.108296,0.076177
86.411166,0.076178
86.714036,0.076179
87.016906,0.076180
87.319776,0.076182
87.622646,0.076183
87.925516,0.076184
88.228386,0.076186
88.531256,0.076187
88.834125,0.076188
89.136995,0.076189
89.439865,0.076191
89.742735,0.076192
90.045605,0.076193
90.348475,0.076195
90.651345,0.076196
90.954215,0.076197
91.257085,0.076199
91.559955,0.076200
91.862825,0.076201
92.165695,0.076203
92.468564,0.076204
92.771434,0.076205
93.074304,0.076207
93.377174,0.076208
93.680044,0.076209
93.982914,0.076211
94.285784,0.076212
94.588654,0.076213
94.891524,0.076215
95.194394,0.076216
95.497264,0.076218
95.800134,0.076219
96.103003,0.076220
96.405873,0.076222
96.708743,0.076223
97.011613,0.076224
97.314483,0.076226
97.617353,0.076227
97.920223,0.076229
98.223093,0.076230
98.525963,0.076231
98.828833,0.076233
99.131703,0.076234
99.434573,0.076236
99.737442,0.076237
100.040312,0.076239
100.343182,0.076240
100.646052,0.076241
100.948922,0.076243
101.251792,0.076244
101.554662,0.076246
101.857532,0.076247
102.160402,0.076249
102.463272,0.076250
102.766142,0.076252
103.069011,0.076253
103.371881,0.076254
103.674751,0.076256
103.977621,0.076257
104.280491,0.076259
104.583361,0.076260
104.886231,0.076262
105.189101,0.076263
105.491971,0.076265
105.794841,0.076266
106.097711,0.076268
106.400581,0.076269
106.703450,0.076271
107.006320,0.076272
107.309190,0.076274
107.612060,0.076275
107.914930,0.076277
108.217800,0.076279
108.520670,0.076280
108.823540,0.076282
109.126410,0.076283
109.429280,0.076285
109.732150,0.076286
110.035020,0.076288
110.337889,0.076289
110.640759,0.076291
110.943629,0.076293
111.246499,0.076294
111.549369,0.076296
111.852239,0.076297
112.155109,0.076299
112.457979,0.076300
112.760849,0.076302
113.063719,0.076304
113.366589,0.076305
113.669459,0.076307
113.972328,0.076308
114.275198,0.076310
114.578068,0.076312
114.880938,0.076313
115.183808,0.076315
115.486678,0.076317
115.789548,0.076318
116.092418,0.076320
116.395288,0.076322
116.698158,0.076323
117.001028,0.076325
117.303898,0.076327
117.606767,0.076328
117.909637,0.076330
118.212507,0.076332
118.515377,0.076333
118.818247,0.076335
119.121117,0.076337
119.423987,0.076338
119.726857,0.076340
120.029727,0.076342
120.332597,0.076343
120.635467,0.076345
120.938337,0.076347
121.241206,0.076349
121.544076,0.076350
121.846946,0.076352
122.149816,0.076354
122.452686,0.076356
122.755556,0.076357
123.058426,0.076359
123.361296,0.076361
123.664166,0.076363
123.967036,0.076364
124.269906,0.076366
124.572776,0.076368
124.875645,0.076370
125.178515,0.076372
125.481385,0.076373
125.784255,0.076375
126.087125,0.076377
126.389995,0.076379
126.692865,0.076381
126.995735,0.076382
127.298605,0.076384
127.601475,0.076386
127.904345,0.076388
128.207214,0.076390
128.510084,0.076392
128.812954,0.076393
129.115824,0.076395
129.418694,0.076397
129.721564,0.076399
130.024434,0.076401
130.327304,0.076403
130.630174,0.076405
130.933044,0.076407
131.235914,0.076409
131.538784,0.076410
131.841653,0.076412
132.144523,0.076414
132.447393,0.076416
132.750263,0.076418
133.053133,0.076420
133.356003,0.076422
133.658873,0.076424
133.961743,0.076426
134.264613,0.076428
134.567483,0.076430
134.870353,0.076432
135.173223,0.076434
135.476092,0.076436
135.778962,0.076438
136.081832,0.076440
136.384702,0.076442
136.687572,0.076444
136.990442,0.076446
137.293312,0.076448
137.596182,0.076450
137.899052,0.076452
138.201922,0.076454
138.504792,0.076456
138.807662,0.076458
139.110531,0.076460
139.413401,0.076462
139.716271,0.076464
140.019141,0.076466
140.322011,0.076468
140.624881,0.076470
140.927751,0.076472
141.230621,0.076474
141.533491,0.076477
141.836361,0.076479
142.139231,0.076481
142.442101,0.076483
142.744970,0.076485
143.047840,0.076487
143.350710,0.076489
143.653580,0.076491
143.956450,0.076494
144.259320,0.076496
144.562190,0.076498
144.865060,0.076500
145.167930,0.076502
145.470800,0.076504
145.773670,0.076507
146.076540,0.076509
146.379409,0.076511
146.682279,0.076513
146.985149,0.076516
147.288019,0.076518
147.590889,0.076520
147.893759,0.076522
148.196629,0.076524
148.499499,0.076527
148.802369,0.076529
149.105239,0.076531
149.408109,0.076534
149.710979,0.076536
150.013848,0.076538
150.316718,0.076540
150.619588,0.076543
150.922458,0.076545
151.225328,0.076547
151.528198,0.076550
151.831068,0.076552
152.133938,0.076554
152.436808,0.076557
152.739678,0.076559
153.042548,0.076561
153.345417,0.076564
153.648287,0.076566
153.951157,0.076569
154.254027,0.076571
154.556897,0.076573
154.859767,0.076576
155.162637,0.076578
155.465507,0.076581
155.768377,0.076583
156.071247,0.076585
156.374117,0.076588
156.676987,0.076590
156.979856,0.076593
157.282726,0.076595
157.585596,0.076598
157.888466,0.076600
158.191336,0.076603
158.494206,0.076605
158.797076,0.076608
159.099946,0.076610
159.402816,0.076613
159.705686,0.076615
160.008556,0.076618
160.311426,0.076620
160.614295,0.076623
160.917165,0.076626
161.220035,0.076628
161.522905,0.076631
161.825775,0.076633
162.128645,0.076636
162.431515,0.076639
162.734385,0.076641
163.037255,0.076644
163.340125,0.076646
163.642995,0.076649
163.945865,0.076652
164.248734,0.076654
164.551604,0.076657
164.854474,0.076660
165.157344,0.076662
165.460214,0.076665
165.763084,0.076668
166.065954,0.076671
166.368824,0.076673
166.671694,0.076676
166.974564,0.076679
167.277434,0.076681
167.580304,0.076684
167.883173,0.076687
168.186043,0.076690
168.488913,0.076693
168.791783,0.076695
169.094653,0.076698
169.397523,0.076701
169.700393,0.076704
170.003263,0.076707
170.306133,0.076709
170.609003,0.076712
170.911873,0.076715
171.214743,0.076718
171.517612,0.076721
171.820482,0.076724
172.123352,0.076727
172.426222,0.076730
172.729092,0.076733
173.031962,0.076736
173.334832,0.076738
173.637702,0.076741
173.940572,0.076744
174.243442,0.076747
174.546312,0.076750
174.849182,0.076753
175.152051,0.076756
175.454921,0.076759
175.757791,0.076762
176.060661,0.076765
176.363531,0.076768
176.666401,0.076771
176.969271,0.076775
177.272141,0.076778
177.575011,0.076781
177.877881,0.076784
178.180751,0.076787
178.483620,0.076790
178.786490,0.076793
179.089360,0.076796
179.392230,0.076799
179.695100,0.076803
179.997970,0.076806
180.300840,0.076809
180.603710,0.076812
180.906580,0.076815
181.209450,0.076819
181.512320,0.076822
181.815190,0.076825
182.118059,0.076828
182.420929,0.076832
182.723799,0.076835
183.026669,0.076838
183.329539,0.076841
183.632409,0.076845
183.935279,0.076848
184.238149,0.076851
184.541019,0.076855
184.843889,0.076858
185.146759,0.076861
185.449629,0.076865
185.752498,0.076868
186.055368,0.076872
186.358238,0.076875
186.661108,0.076879
186.963978,0.076882
187.266848,0.076885
187.569718,0.076889
187.872588,0.076892
188.175458,0.076896
188.478328,0.076899
188.781198,0.076903
189.084068,0.076906
189.386937,0.076910
189.689807,0.076914
189.992677,0.076917
190.295547,0.076921
190.598417,0.076924
190.901287,0.076928
191.204157,0.076932
191.507027,0.076935
191.809897,0.076939
192.112767,0.076942
192.415637,0.076946
192.718507,0.076950
193.021376,0.076954
193.324246,0.076957
193.627116,0.076961
193.929986,0.076965
194.232856,0.076968
194.535726,0.076972
194.838596,0.076976
195.141466,0.076980
195.444336,0.076984
195.747206,0.076987
196.050076,0.076991
196.352946,0.076995
196.655815,0.076999
196.958685,0.077003
197.261555,0.077007
197.564425,0.077011
197.867295,0.077015
198.170165,0.077019
198.473035,0.077023
198.775905,0.077027
199.078775,0.077031
199.381645,0.077035
199.684515,0.077039
199.987384,0.077043
200.290254,0.077047
200.593124,0.077051
200.895994,0.077055
201.198864,0.077059
201.501734,0.077063
201.804604,0.077067
202.107474,0.077071
202.410344,0.077075
202.713214,0.077080
203.016084,0.077084
203.318954,0.077088
203.621823,0.077092
203.924693,0.077096
204.227563,0.077101
204.530433,0.077105
204.833303,0.077109
205.136173,0.077114
205.439043,0.077118
205.741913,0.077122
206.044783,0.077127
206.347653,0.077131
206.650523,0.077135
206.953393,0.077140
207.256262,0.077144
207.559132,0.077149
207.862002,0.077153
208.164872,0.077158
208.467742,0.077162
208.770612,0.077167
209.073482,0.077171
209.376352,0.077176
209.679222,0.077180
209.982092,0.077185
210.284962,0.077190
210.587832,0.077194
210.890701,0.077199
211.193571,0.077203
211.496441,0.077208
211.799311,0.077213
212.102181,0.077218
212.405051,0.077222
212.707921,0.077227
213.010791,0.077232
213.313661,0.077237
213.616531,0.077241
213.919401,0.077246
214.222271,0.077251
214.525140,0.077256
214.828010,0.077261
215.130880,0.077266
215.433750,0.077271
215.736620,0.077276
216.039490,0.077281
216.342360,0.077286
216.645230,0.077291
216.948100,0.077296
217.250970,0.077301
217.553840,0.077306
217.856710,0.077311
218.159579,0.077316
218.462449,0.077321
218.765319,0.077326
219.068189,0.077332
219.371059,0.077337
219.673929,0.077342
219.976799,0.077347
220.279669,0.077352
220.582539,0.077358
220.885409,0.077363
221.188279,0.077368
221.491149,0.077374
221.794018,0.077379
222.096888,0.077385
222.399758,0.077390
222.702628,0.077395
223.005498,0.077401
223.308368,0.077406
223.611238,0.077412
223.914108,0.077417
224.216978,0.077423
224.519848,0.077429
224.822718,0.077434
225.125587,0.077440
225.428457,0.077445
225.731327,0.077451
226.034197,0.077457
226.337067,0.077463
226.639937,0.077468
226.942807,0.077474
227.245677,0.077480
227.548547,0.077486
227.851417,0.077492
228.154287,0.077498
228.457157,0.077503
228.760026,0.077509
229.062896,0.077515
229.365766,0.077521
229.668636,0.077527
229.971506,0.077533
230.274376,0.077539
230.577246,0.077546
230.880116,0.077552
231.182986,0.077558
231.485856,0.077564
231.788726,0.077570
232.091596,0.077576
232.394465,0.077583
232.697335,0.077589
233.000205,0.077595
233.303075,0.077602
233.605945,0.077608
233.908815,0.077614
234.211685,0.077621
234.514555,0.077627
234.817425,0.077634
235.120295,0.077640
235.423165,0.077647
235.726035,0.077653
236.028904,0.077660
236.331774,0.077667
236.634644,0.077673
236.937514,0.077680
237.240384,0.077687
237.543254,0.077693
237.846124,0.077700
238.148994,0.077707
238.451864,0.077714
238.754734,0.077721
239.057604,0.077728
239.360474,0.077735
239.663343,0.077742
239.966213,0.077749
240.269083,0.077756
240.571953,0.077763
240.874823,0.077770
241.177693,0.077777
241.480563,0.077784
241.783433,0.077791
242.086303,0.077799
242.389173,0.077806
242.692043,0.077813
242.994913,0.077820
243.297782,0.077828
243.600652,0.077835
243.903522,0.077843
244.206392,0.077850
244.509262,0.077858
244.812132,0.077865
245.115002,0.077873
245.417872,0.077880
245.720742,0.077888
246.023612,0.077896
246.326482,0.077904
246.629352,0.077911
246.932221,0.077919
247.235091,0.077927
247.537961,0.077935
247.840831,0.077943
248.143701,0.077951
248.446571,0.077959
248.749441,0.077967
249.052311,0.077975
249.355181,0.077983
249.658051,0.077991
249.960921,0.077999
250.263790,0.078007
250.566660,0.078016
250.869530,0.078024
251.172400,0.078032
251.475270,0.078041
251.778140,0.078049
252.081010,0.078058
252.383880,0.078066
252.686750,0.078075
252.989620,0.078083
253.292490,0.078092
253.595360,0.078101
253.898229,0.078109
254.201099,0.078118
254.503969,0.078127
254.806839,0.078136
255.109709,0.078145
255.412579,0.078154
255.715449,0.078163
256.018319,0.078172
256.321189,0.078181
256.624059,0.078190
256.926929,0.078199
257.229799,0.078208
257.532668,0.078218
257.835538,0.078227
258.138408,0.078236
258.441278,0.078246
258.744148,0.078255
259.047018,0.078265
259.349888,0.078274
259.652758,0.078284
259.955628,0.078294
260.258498,0.078303
260.561368,0.078313
260.864238,0.078323
261.167107,0.078333
261.469977,0.078343
261.772847,0.078353
262.075717,0.078363
262.378587,0.078373
262.681457,0.078383
262.984327,0.078393
263.287197,0.078403
263.590067,0.078414
263.892937,0.078424
264.195807,0.078434
264.498677,0.078445
264.801546,0.078455
265.104416,0.078466
265.407286,0.078477
265.710156,0.078487
266.013026,0.078498
266.315896,0.078509
266.618766,0.078520
266.921636,0.078530
267.224506,0.078541
267.527376,0.078552
267.830246,0.078564
268.133116,0.078575
268.435985,0.078586
268.738855,0.078597
269.041725,0.078609
269.344595,0.078620
269.647465,0.078631
269.950335,0.078643
270.253205,0.078654
270.556075,0.078666
270.858945,0.078678
271.161815,0.078690
271.464685,0.078701
271.767555,0.078713
272.070424,0.078725
272.373294,0.078737
272.676164,0.078749
272.979034,0.078762
273.281904,0.078774
273.584774,0.078786
273.887644,0.078799
274.190514,0.078811
274.493384,0.078824
274.796254,0.078836
275.099124,0.078849
275.401993,0.078862
275.704863,0.078874
276.007733,0.078887
276.310603,0.078900
276.613473,0.078913
276.916343,0.078926
277.219213,0.078940
277.522083,0.078953
277.824953,0.078966
278.127823,0.078980
278.430693,0.078993
278.733563,0.079007
279.036432,0.079020
279.339302,0.079034
279.642172,0.079048
279.945042,0.079062
280.247912,0.079076
280.550782,0.079090
280.853652,0.079104
281.156522,0.079118
281.459392,0.079132
281.762262,0.079147
282.065132,0.079161
282.368002,0.079176
282.670871,0.079190
282.973741,0.079205
283.276611,0.079220
283.579481,0.079235
283.882351,0.079250
284.185221,0.079265
284.488091,0.079280
284.790961,0.079296
285.093831,0.079311
285.396701,0.079326
285.699571,0.079342
286.002441,0.079358
286.305310,0.079373
286.608180,0.079389
286.911050,0.079405
287.213920,0.079421
287.516790,0.079437
287.819660,0.079454
288.122530,0.079470
288.425400,0.079486
288.728270,0.079503
289.031140,0.079520
289.334010,0.079536
289.636880,0.079553
289.939749,0.079570
290.242619,0.079587
290.545489,0.079604
290.848359,0.079622
291.151229,0.079639
291.454099,0.079657
291.756969,0.079674
292.059839,0.079692
292.362709,0.079710
292.665579,0.079728
292.968449,0.079746
293.271319,0.079764
293.574188,0.079782
293.877058,0.079801
294.179928,0.079819
294.482798,0.079838
294.785668,0.079857
295.088538,0.079876
295.391408,0.079895
295.694278,0.079914
295.997148,0.079933
296.300018,0.079953
296.602888,0.079972
296.905757,0.079992
297.208627,0.080012
297.511497,0.080032
297.814367,0.080052
298.117237,0.080072
298.420107,0.080092
298.722977,0.080113
299.025847,0.080134
299.328717,0.080154
299.631587,0.080175
299.934457,0.080196
300.237327,0.080218
300.540196,0.080239
300.843066,0.080260
301.145936,0.080282
301.448806,0.080304
301.751676,0.080326
302.054546,0.080348
302.357416,0.080370
302.660286,0.080392
302.963156,0.080415
303.266026,0.080438
303.568896,0.080461
303.871766,0.080484
304.174635,0.080507
304.477505,0.080530
304.780375,0.080554
305.083245,0.080577
305.386115,0.080601
305.688985,0.080625
305.991855,0.080649
306.294725,0.080674
306.597595,0.080698
306.900465,0.080723
307.203335,0.080748
307.506205,0.080773
307.809074,0.080798
308.111944,0.080824
308.414814,0.080849
308.717684,0.080875
309.020554,0.080901
309.323424,0.080927
309.626294,0.080954
309.929164,0.080980
310.232034,0.081007
310.534904,0.081034
310.837774,0.081061
311.140644,0.081089
311.443513,0.081116
311.746383,0.081144
312.049253,0.081172
312.352123,0.081200
312.654993,0.081229
312.957863,0.081257
313.260733,0.081286
313.563603,0.081315
313.866473,0.081345
314.169343,0.081374
314.472213,0.081404
314.775083,0.081434
315.077952,0.081464
315.380822,0.081494
315.683692,0.081525
315.986562,0.081556
316.289432,0.081587
316.592302,0.081619
316.895172,0.081650
317.198042,0.081682
317.500912,0.081714
317.803782,0.081747
318.106652,0.081779
318.409522,0.081812
318.712391,0.081845
319.015261,0.081879
319.318131,0.081913
319.621001,0.081947
319.923871,0.081981
320.226741,0.082015
320.529611,0.082050
320.832481,0.082085
321.135351,0.082121
321.438221,0.082156
321.741091,0.082192
322.043960,0.082229
322.346830,0.082265
322.649700,0.082302
322.952570,0.082339
323.255440,0.082377
323.558310,0.082415
323.861180,0.082453
324.164050,0.082491
324.466920,0.082530
324.769790,0.082569
325.072660,0.082608
325.375530,0.082648
325.678399,0.082688
325.981269,0.082729
326.284139,0.082770
326.587009,0.082811
326.889879,0.082852
327.192749,0.082894
327.495619,0.082936
327.798489,0.082979
328.101359,0.083022
328.404229,0.083065
328.707099,0.083109
329.009969,0.083153
329.312838,0.083197
329.615708,0.083242
329.918578,0.083288
330.221448,0.083333
330.524318,0.083379
330.827188,0.083426
331.130058,0.083473
331.432928,0.083520
331.735798,0.083568
332.038668,0.083616
332.341538,0.083665
332.644408,0.083714
332.947277,0.083764
333.250147,0.083814
333.553017,0.083864
333.855887,0.083915
334.158757,0.083966
334.461627,0.084018
334.764497,0.084071
335.067367,0.084124
335.370237,0.084177
335.673107,0.084231
335.975977,0.084285
336.278847,0.084340
336.581716,0.084395
336.884586,0.084451
337.187456,0.084508
337.490326,0.084565
337.793196,0.084623
338.096066,0.084681
338.398936,0.084739
338.701806,0.084799
339.004676,0.084859
339.307546,0.084919
339.610416,0.084980
339.913286,0.085042
340.216155,0.085104
340.519025,0.085167
340.821895,0.085231
341.124765,0.085295
341.427635,0.085360
341.730505,0.085425
342.033375,0.085491
342.336245,0.085558
342.639115,0.085626
342.941985,0.085694
343.244855,0.085763
343.547725,0.085832
343.850594,0.085903
344.153464,0.085974
344.456334,0.086045
344.759204,0.086118
345.062074,0.086191
345.364944,0.086265
345.667814,0.086340
345.970684,0.086416
346.273554,0.086492
346.576424,0.086570
346.879294,0.086648
347.182163,0.086727
347.485033,0.086807
347.787903,0.086888
348.090773,0.086969
348.393643,0.087052
348.696513,0.087135
348.999383,0.087219
349.302253,0.087305
349.605123,0.087391
349.907993,0.087478
350.210863,0.087566
350.513733,0.087655
350.816602,0.087745
351.119472,0.087837
351.422342,0.087929
351.725212,0.088022
352.028082,0.088117
352.330952,0.088212
352.633822,0.088309
352.936692,0.088406
353.239562,0.088505
353.542432,0.088605
353.845302,0.088706
354.148172,0.088809
354.451041,0.088912
354.753911,0.089017
355.056781,0.089123
355.359651,0.089230
355.662521,0.089339
355.965391,0.089449
356.268261,0.089560
356.571131,0.089673
356.874001,0.089787
357.176871,0.089902
357.479741,0.090019
357.782611,0.090137
358.085480,0.090257
358.388350,0.090379
358.691220,0.090501
358.994090,0.090626
