# rshift,intensity
54.761365,0.080857
55.064323,0.080857
55.367281,0.080858
55.670239,0.080859
55.973197,0.080860
56.276156,0.080861
56.579114,0.080862
56.882072,0.080863
57.185030,0.080864
57.487988,0.080865
57.790946,0.080866
58.093904,0.080867
58.396862,0.080868
58.699820,0.080868
59.002778,0.080869
59.305736,0.080870
59.608694,0.080871
59.911652,0.080872
60.214610,0.080873
60.517568,0.080874
60.820526,0.080875
61.123485,0.080876
61.426443,0.080877
61.729401,0.080878
62.032359,0.080879
62.335317,0.080880
62.638275,0.080881
62.941233,0.080882
63.244191,0.080883
63.547149,0.080884
63.850107,0.080885
64.153065,0.080886
64.456023,0.080887
64.758981,0.080888
65.061939,0.080889
65.364897,0.080890
65.667855,0.080891
65.970813,0.080891
66.273772,0.080892
66.576730,0.080893
66.879688,0.080894
67.182646,0.080895
67.485604,0.080896
67.788562,0.080897
68.091520,0.080898
68.394478,0.080899
68.697436,0.080900
69.000394,0.080901
69.303352,0.080902
69.606310,0.080903
69.909268,0.080905
70.212226,0.080906
70.515184,0.080907
70.818142,0.080908
71.121101,0.080909
71.424059,0.080910
71.727017,0.080911
72.029975,0.080912
72.332933,0.080913
72.635891,0.080914
72.938849,0.080915
73.241807,0.080916
73.544765,0.080917
73.847723,0.080918
74.150681,0.080919
74.453639,0.080920
74.756597,0.080921
75.059555,0.080922
75.362513,0.080923
75.665471,0.080924
75.968430,0.080925
76.271388,0.080926
76.574346,0.080927
76.877304,0.080929
77.180262,0.080930
77.483220,0.080931
77.786178,0.080932
78.089136,0.080933
78.392094,0.080934
78.695052,0.080935
78.998010,0.080936
79.300968,0.080937
79.603926,0.080938
79.906884,0.080939
80.209842,0.080941
80.512800,0.080942
80.815759,0.080943
81.118717,0.080944
81.421675,0.080945
81.724633,0.080946
82.027591,0.080947
82.330549,0.080948
82.633507,0.080949
82.936465,0.080951
83.239423,0.080952
83.542381,0.080953
83.845339,0.080954
84.148297,0.080955
84.451255,0.080956
84.754213,0.080957
85.057171,0.080959
85.360129,0.080960
85.663088,0.080961
85.966046,0.080962
86.269004,0.080963
86.571962,0.080964
86.874920,0.080966
87.177878,0.080967
87.480836,0.080968
87.783794,0.080969
88.086752,0.080970
88.389710,0.080971
88.692668,0.080973
88.995626,0.080974
89.298584,0.080975
89.601542,0.080976
89.904500,0.080977
90.207458,0.080979
90.510416,0.080980
90.813375,0.080981
91.116333,0.080982
91.419291,0.080983
91.722249,0.080985
92.025207,0.080986
92.328165,0.080987
92.631123,0.080988
92.934081,0.080990
93.237039,0.080991
93.539997,0.080992
93.842955,0.080993
94.145913,0.080994
94.448871,0.080996
94.751829,0.080997
95.054787,0.080998
95.357745,0.080999
95.660704,0.081001
95.963662,0.081002
96.266620,0.081003
96.569578,0.081004
96.872536,0.081006
97.175494,0.081007
97.478452,0.081008
97.781410,0.081010
98.084368,0.081011
98.387326,0.081012
98.690284,0.081013
98.993242,0.081015
99.296200,0.081016
99.599158,0.081017
99.902116,0.081019
100.205074,0.081020
100.508033,0.081021
100.810991,0.081023
101.113949,0.081024
101.416907,0.081025
101.719865,0.081027
102.022823,0.081028
102.325781,0.081029
102.628739,0.081031
102.931697,0.081032
103.234655,0.081033
103.537613,0.081035
103.840571,0.081036
104.143529,0.081037
104.446487,0.081039
104.749445,0.081040
105.052403,0.081041
105.355362,0.081043
105.658320,0.081044
105.961278,0.081045
106.264236,0.081047
106.567194,0.081048
106.870152,0.081050
107.173110,0.081051
107.476068,0.081052
107.779026,0.081054
108.081984,0.081055
108.384942,0.081057
108.687900,0.081058
108.990858,0.081059
109.293816,0.081061
109.596774,0.081062
109.899732,0.081064
110.202691,0.081065
110.505649,0.081067
110.808607,0.081068
111.111565,0.081069
111.414523,0.081071
111.717481,0.081072
112.020439,0.081074
112.323397,0.081075
112.626355,0.081077
112.929313,0.081078
113.232271,0.081080
113.535229,0.081081
113.838187,0.081083
114.141145,0.081084
114.444103,0.081085
114.747061,0.081087
115.050019,0.081088
115.352978,0.081090
115.655936,0.081091
115.958894,0.081093
116.261852,0.081094
116.564810,0.081096
116.867768,0.081097
117.170726,0.081099
117.473684,0.081101
117.776642,0.081102
118.079600,0.081104
118.382558,0.081105
118.685516,0.081107
118.988474,0.081108
119.291432,0.081110
119.594390,0.081111
119.897348,0.081113
120.200307,0.081114
120.503265,0.081116
120.806223,0.081118
121.109181,0.081119
121.412139,0.081121
121.715097,0.081122
122.018055,0.081124
122.321013,0.081126
122.623971,0.081127
122.926929,0.081129
123.229887,0.081130
123.532845,0.081132
123.835803,0.081134
124.138761,0.081135
124.441719,0.081137
124.744677,0.081138
125.047636,0.081140
125.350594,0.081142
125.653552,0.081143
125.956510,0.081145
126.259468,0.081147
126.562426,0.081148
126.865384,0.081150
127.168342,0.081152
127.471300,0.081153
127.774258,0.081155
128.077216,0.081157
128.380174,0.081158
128.683132,0.081160
128.986090,0.081162
129.289048,0.081163
129.592006,0.081165
129.894965,0.081167
130.197923,0.081169
130.500881,0.081170
130.803839,0.081172
131.106797,0.081174
131.409755,0.081176
131.712713,0.081177
132.015671,0.081179
132.318629,0.081181
132.621587,0.081183
132.924545,0.081184
133.227503,0.081186
133.530461,0.081188
133.833419,0.081190
134.136377,0.081191
134.439335,0.081193
134.742294,0.081195
135.045252,0.081197
135.348210,0.081199
135.651168,0.081200
135.954126,0.081202
136.257084,0.081204
136.560042,0.081206
136.863000,0.081208
137.165958,0.081210
137.468916,0.081211
137.771874,0.081213
138.074832,0.081215
138.377790,0.081217
138.680748,0.081219
138.983706,0.081221
139.286664,0.081223
139.589622,0.081224
139.892581,0.081226
140.195539,0.081228
140.498497,0.081230
140.801455,0.081232
141.104413,0.081234
141.407371,0.081236
141.710329,0.081238
142.013287,0.081240
142.316245,0.081242
142.619203,0.081244
142.922161,0.081246
143.225119,0.081247
143.528077,0.081249
143.831035,0.081251
144.133993,0.081253
144.436951,0.081255
144.739910,0.081257
145.042868,0.081259
145.345826,0.081261
145.648784,0.081263
145.951742,0.081265
146.254700,0.081267
146.557658,0.081269
146.860616,0.081271
147.163574,0.081273
147.466532,0.081275
147.769490,0.081277
148.072448,0.081280
148.375406,0.081282
148.678364,0.081284
148.981322,0.081286
149.284280,0.081288
149.587239,0.081290
149.890197,0.081292
150.193155,0.081294
150.496113,0.081296
150.799071,0.081298
151.102029,0.081300
151.404987,0.081302
151.707945,0.081305
152.010903,0.081307
152.313861,0.081309
152.616819,0.081311
152.919777,0.081313
153.222735,0.081315
153.525693,0.081317
153.828651,0.081320
154.131609,0.081322
154.434568,0.081324
154.737526,0.081326
155.040484,0.081328
155.343442,0.081331
155.646400,0.081333
155.949358,0.081335
156.252316,0.081337
156.555274,0.081340
156.858232,0.081342
157.161190,0.081344
157.464148,0.081346
157.767106,0.081349
158.070064,0.081351
158.373022,0.081353
158.675980,0.081355
158.978938,0.081358
159.281897,0.081360
159.584855,0.081362
159.887813,0.081365
160.190771,0.081367
160.493729,0.081369
160.796687,0.081372
161.099645,0.081374
161.402603,0.081376
161.705561,0.081379
162.008519,0.081381
162.311477,0.081383
162.614435,0.081386
162.917393,0.081388
163.220351,0.081391
163.523309,0.081393
163.826267,0.081395
164.129225,0.081398
164.432184,0.081400
164.735142,0.081403
165.038100,0.081405
165.341058,0.081408
165.644016,0.081410
165.946974,0.081413
166.249932,0.081415
166.552890,0.081418
166.855848,0.081420
167.158806,0.081423
167.461764,0.081425
167.764722,0.081428
168.067680,0.081430
168.370638,0.081433
168.673596,0.081435
168.976554,0.081438
169.279513,0.081440
169.582471,0.081443
169.885429,0.081445
170.188387,0.081448
170.491345,0.081451
170.794303,0.081453
171.097261,0.081456
171.400219,0.081458
171.703177,0.081461
172.006135,0.081464
172.309093,0.081466
172.612051,0.081469
172.915009,0.081472
173.217967,0.081474
173.520925,0.081477
173.823883,0.081480
174.126842,0.081482
174.429800,0.081485
174.732758,0.081488
175.035716,0.081491
175.338674,0.081493
175.641632,0.081496
175.944590,0.081499
176.247548,0.081502
176.550506,0.081504
176.853464,0.081507
177.156422,0.081510
177.459380,0.081513
177.762338,0.081516
178.065296,0.081518
178.368254,0.081521
178.671212,0.081524
178.974171,0.081527
179.277129,0.081530
179.580087,0.081533
179.883045,0.081536
180.186003,0.081539
180.488961,0.081541
180.791919,0.081544
181.094877,0.081547
181.397835,0.081550
181.700793,0.081553
182.003751,0.081556
182.306709,0.081559
182.609667,0.081562
182.912625,0.081565
183.215583,0.081568
183.518541,0.081571
183.821499,0.081574
184.124458,0.081577
184.427416,0.081580
184.730374,0.081583
185.033332,0.081586
185.336290,0.081589
185.639248,0.081592
185.942206,0.081596
186.245164,0.081599
186.548122,0.081602
186.851080,0.081605
187.154038,0.081608
187.456996,0.081611
187.759954,0.081614
188.062912,0.081618
188.365870,0.081621
188.668828,0.081624
188.971787,0.081627
189.274745,0.081630
189.577703,0.081634
189.880661,0.081637
190.183619,0.081640
190.486577,0.081643
190.789535,0.081647
191.092493,0.081650
191.395451,0.081653
191.698409,0.081657
192.001367,0.081660
192.304325,0.081663
192.607283,0.081667
192.910241,0.081670
193.213199,0.081673
193.516157,0.081677
193.819116,0.081680
194.122074,0.081684
194.425032,0.081687
194.727990,0.081690
195.030948,0.081694
195.333906,0.081697
195.636864,0.081701
195.939822,0.081704
196.242780,0.081708
196.545738,0.081711
196.848696,0.081715
197.151654,0.081718
197.454612,0.081722
197.757570,0.081726
198.060528,0.081729
198.363486,0.081733
198.666445,0.081736
198.969403,0.081740
199.272361,0.081744
199.575319,0.081747
199.878277,0.081751
200.181235,0.081755
200.484193,0.081758
200.787151,0.081762
201.090109,0.081766
201.393067,0.081769
201.696025,0.081773
201.998983,0.081777
202.301941,0.081781
202.604899,0.081785
202.907857,0.081788
203.210815,0.081792
203.513774,0.081796
203.816732,0.081800
204.119690,0.081804
204.422648,0.081808
204.725606,0.081812
205.028564,0.081815
205.331522,0.081819
205.634480,0.081823
205.937438,0.081827
206.240396,0.081831
206.543354,0.081835
206.846312,0.081839
207.149270,0.081843
207.452228,0.081847
207.755186,0.081851
208.058144,0.081855
208.361102,0.081859
208.664061,0.081864
208.967019,0.081868
209.269977,0.081872
209.572935,0.081876
209.875893,0.081880
210.178851,0.081884
210.481809,0.081889
210.784767,0.081893
211.087725,0.081897
211.390683,0.081901
211.693641,0.081905
211.996599,0.081910
212.299557,0.081914
212.602515,0.081918
212.905473,0.081923
213.208431,0.081927
213.511390,0.081931
213.814348,0.081936
214.117306,0.081940
214.420264,0.081945
214.723222,0.081949
215.026180,0.081954
215.329138,0.081958
215.632096,0.081963
215.935054,0.081967
216.238012,0.081972
216.540970,0.081976
216.843928,0.081981
217.146886,0.081985
217.449844,0.081990
217.752802,0.081994
218.055760,0.081999
218.358719,0.082004
218.661677,0.082008
218.964635,0.082013
219.267593,0.082018
219.570551,0.082023
219.873509,0.082027
220.176467,0.082032
220.479425,0.082037
220.782383,0.082042
221.085341,0.082047
221.388299,0.082051
221.691257,0.082056
221.994215,0.082061
222.297173,0.082066
222.600131,0.082071
222.903089,0.082076
223.206048,0.082081
223.509006,0.082086
223.811964,0.082091
224.114922,0.082096
224.417880,0.082101
224.720838,0.082106
225.023796,0.082111
225.326754,0.082117
225.629712,0.082122
225.932670,0.082127
226.235628,0.082132
226.538586,0.082137
226.841544,0.082142
227.144502,0.082148
227.447460,0.082153
227.750418,0.082158
228.053377,0.082164
228.356335,0.082169
228.659293,0.082174
228.962251,0.082180
229.265209,0.082185
229.568167,0.082191
229.871125,0.082196
230.174083,0.082202
230.477041,0.082207
230.779999,0.082213
231.082957,0.082218
231.385915,0.082224
231.688873,0.082230
231.991831,0.082235
232.294789,0.082241
232.597747,0.082247
232.900705,0.082252
233.203664,0.082258
233.506622,0.082264
233.809580,0.082270
234.112538,0.082275
234.415496,0.082281
234.718454,0.082287
235.021412,0.082293
235.324370,0.082299
235.627328,0.082305
235.930286,0.082311
236.233244,0.082317
236.536202,0.082323
236.839160,0.082329
237.142118,0.082335
237.445076,0.082341
237.748034,0.082347
238.050993,0.082353
238.353951,0.082360
238.656909,0.082366
238.959867,0.082372
239.262825,0.082378
239.565783,0.082385
239.868741,0.082391
240.171699,0.082397
240.474657,0.082404
240.777615,0.082410
241.080573,0.082417
241.383531,0.082423
241.686489,0.082430
241.989447,0.082436
242.292405,0.082443
242.595363,0.082449
242.898322,0.082456
243.201280,0.082463
243.504238,0.082469
243.807196,0.082476
244.110154,0.082483
244.413112,0.082490
244.716070,0.082497
245.019028,0.082503
245.321986,0.082510
245.624944,0.082517
245.927902,0.082524
246.230860,0.082531
246.533818,0.082538
246.836776,0.082545
247.139734,0.082552
247.442692,0.082559
247.745651,0.082567
248.048609,0.082574
248.351567,0.082581
248.654525,0.082588
248.957483,0.082596
249.260441,0.082603
249.563399,0.082610
249.866357,0.082618
250.169315,0.082625
250.472273,0.082633
250.775231,0.082640
251.078189,0.082648
251.381147,0.082655
251.684105,0.082663
251.987063,0.082671
252.290021,0.082678
252.592980,0.082686
252.895938,0.082694
253.198896,0.082702
253.501854,0.082709
253.804812,0.082717
254.107770,0.082725
254.410728,0.082733
254.713686,0.082741
255.016644,0.082749
255.319602,0.082757
255.622560,0.082765
255.925518,0.082774
256.228476,0.082782
256.531434,0.082790
256.834392,0.082798
257.137350,0.082807
257.440308,0.082815
257.743267,0.082823
258.046225,0.082832
258.349183,0.082840
258.652141,0.082849
258.955099,0.082858
259.258057,0.082866
259.561015,0.082875
259.863973,0.082884
260.166931,0.082892
260.469889,0.082901
260.772847,0.082910
261.075805,0.082919
261.378763,0.082928
261.681721,0.082937
261.984679,0.082946
262.287637,0.082955
262.590596,0.082964
262.893554,0.082973
263.196512,0.082983
263.499470,0.082992
263.802428,0.083001
264.105386,0.083011
264.408344,0.083020
264.711302,0.083029
265.014260,0.083039
265.317218,0.083049
265.620176,0.083058
265.923134,0.083068
266.226092,0.083078
266.529050,0.083087
266.832008,0.083097
267.134966,0.083107
267.437925,0.083117
267.740883,0.083127
268.043841,0.083137
268.346799,0.083147
268.649757,0.083157
268.952715,0.083168
269.255673,0.083178
269.558631,0.083188
269.861589,0.083199
270.164547,0.083209
270.467505,0.083219
270.770463,0.083230
271.073421,0.083241
271.376379,0.083251
271.679337,0.083262
271.982295,0.083273
272.285254,0.083284
272.588212,0.083295
272.891170,0.083305
273.194128,0.083317
273.497086,0.083328
273.800044,0.083339
274.103002,0.083350
274.405960,0.083361
274.708918,0.083373
275.011876,0.083384
275.314834,0.083395
275.617792,0.083407
275.920750,0.083419
276.223708,0.083430
276.526666,0.083442
276.829624,0.083454
277.132583,0.083466
277.435541,0.083478
277.738499,0.083490
278.041457,0.083502
278.344415,0.083514
278.647373,0.083526
278.950331,0.083538
279.253289,0.083551
279.556247,0.083563
279.859205,0.083576
280.162163,0.083588
280.465121,0.083601
280.768079,0.083613
281.071037,0.083626
281.373995,0.083639
281.676953,0.083652
281.979911,0.083665
282.282870,0.083678
282.585828,0.083691
282.888786,0.083705
283.191744,0.083718
283.494702,0.083731
283.797660,0.083745
284.100618,0.083758
284.403576,0.083772
284.706534,0.083786
285.009492,0.083800
285.312450,0.083813
285.615408,0.083827
285.918366,0.083842
286.221324,0.083856
286.524282,0.083870
286.827240,0.083884
287.130199,0.083899
287.433157,0.083913
287.736115,0.083928
288.039073,0.083942
288.342031,0.083957
288.644989,0.083972
288.947947,0.083987
289.250905,0.084002
289.553863,0.084017
289.856821,0.084032
290.159779,0.084048
290.462737,0.084063
290.765695,0.084079
291.068653,0.084094
291.371611,0.084110
291.674569,0.084126
291.977528,0.084142
292.280486,0.084158
292.583444,0.084174
292.886402,0.084190
293.189360,0.084206
293.492318,0.084223
293.795276,0.084239
294.098234,0.084256
294.401192,0.084273
294.704150,0.084290
295.007108,0.084307
295.310066,0.084324
295.613024,0.084341
295.915982,0.084358
296.218940,0.084376
296.521898,0.084393
296.824857,0.084411
297.127815,0.084429
297.430773,0.084446
297.733731,0.084464
298.036689,0.084483
298.339647,0.084501
298.642605,0.084519
298.945563,0.084538
299.248521,0.084556
299.551479,0.084575
299.854437,0.084594
300.157395,0.084613
300.460353,0.084632
300.763311,0.084651
301.066269,0.084671
301.369227,0.084690
301.672185,0.084710
301.975144,0.084729
302.278102,0.084749
302.581060,0.084769
302.884018,0.084790
303.186976,0.084810
303.489934,0.084830
303.792892,0.084851
304.095850,0.084872
304.398808,0.084893
304.701766,0.084914
305.004724,0.084935
305.307682,0.084956
305.610640,0.084978
305.913598,0.084999
306.216556,0.085021
306.519514,0.085043
306.822473,0.085065
307.125431,0.085087
307.428389,0.085110
307.731347,0.085132
308.034305,0.085155
308.337263,0.085178
308.640221,0.085201
308.943179,0.085224
309.246137,0.085248
309.549095,0.085271
309.852053,0.085295
310.155011,0.085319
310.457969,0.085343
310.760927,0.085367
311.063885,0.085392
311.366843,0.085416
311.669802,0.085441
311.972760,0.085466
312.275718,0.085491
312.578676,0.085517
312.881634,0.085542
313.184592,0.085568
313.487550,0.085594
313.790508,0.085620
314.093466,0.085646
314.396424,0.085673
314.699382,0.085700
315.002340,0.085727
315.305298,0.085754
315.608256,0.085781
315.911214,0.085809
316.214172,0.085836
316.517131,0.085864
316.820089,0.085893
317.123047,0.085921
317.426005,0.085950
317.728963,0.085979
318.031921,0.086008
318.334879,0.086037
318.637837,0.086067
318.940795,0.086096
319.243753,0.086126
319.546711,0.086157
319.849669,0.086187
320.152627,0.086218
320.455585,0.086249
320.758543,0.086280
321.061501,0.086312
321.364460,0.086344
321.667418,0.086376
321.970376,0.086408
322.273334,0.086440
322.576292,0.086473
322.879250,0.086506
323.182208,0.086540
323.485166,0.086573
323.788124,0.086607
324.091082,0.086641
324.394040,0.086676
324.696998,0.086710
324.999956,0.086746
325.302914,0.086781
325.605872,0.086816
325.908830,0.086852
326.211788,0.086889
326.514747,0.086925
326.817705,0.086962
327.120663,0.086999
327.423621,0.087037
327.726579,0.087075
328.029537,0.087113
328.332495,0.087151
328.635453,0.087190
328.938411,0.087229
329.241369,0.087269
329.544327,0.087308
329.847285,0.087349
330.150243,0.087389
330.453201,0.087430
330.756159,0.087471
331.059117,0.087513
331.362076,0.087555
331.665034,0.087597
331.967992,0.087640
332.270950,0.087683
332.573908,0.087727
332.876866,0.087770
333.179824,0.087815
333.482782,0.087860
333.785740,0.087905
334.088698,0.087950
334.391656,0.087996
334.694614,0.088042
334.997572,0.088089
335.300530,0.088137
335.603488,0.088184
335.906446,0.088232
336.209405,0.088281
336.512363,0.088330
336.815321,0.088379
337.118279,0.088429
337.421237,0.088480
337.724195,0.088531
338.027153,0.088582
338.330111,0.088634
338.633069,0.088687
338.936027,0.088739
339.238985,0.088793
339.541943,0.088847
339.844901,0.088901
340.147859,0.088956
340.450817,0.089012
340.753775,0.089068
341.056734,0.089125
341.359692,0.089182
341.662650,0.089240
341.965608,0.089298
342.268566,0.089357
342.571524,0.089417
342.874482,0.089477
343.177440,0.089537
343.480398,0.089599
343.783356,0.089661
344.086314,0.089724
344.389272,0.089787
344.692230,0.089851
344.995188,0.089915
345.298146,0.089981
345.601104,0.090047
345.904063,0.090113
346.207021,0.090181
346.509979,0.090249
346.812937,0.090317
347.115895,0.090387
347.418853,0.090457
347.721811,0.090528
348.024769,0.090600
348.327727,0.090673
348.630685,0.090746
348.933643,0.090820
349.236601,0.090895
349.539559,0.090971
349.842517,0.091047
350.145475,0.091125
350.448433,0.091203
350.751391,0.091282
351.054350,0.091363
351.357308,0.091444
351.660266,0.091525
351.963224,0.091608
352.266182,0.091692
352.569140,0.091777
352.872098,0.091862
353.175056,0.091949
353.478014,0.092037
353.780972,0.092125
354.083930,0.092215
354.386888,0.092306
354.689846,0.092398
354.992804,0.092491
355.295762,0.092585
355.598720,0.092680
355.901679,0.092776
356.204637,0.092873
356.507595,0.092972
356.810553,0.093072
357.113511,0.093173
357.416469,0.093275
357.719427,0.093379
358.022385,0.093483
358.325343,0.093589
358.628301,0.093697
358.931259,0.093805
359.234217,0.093915
