# rshift,intensity
58.014654,0.134236
58.317409,0.134237
58.620163,0.134238
58.922917,0.134240
59.225672,0.134241
59.528426,0.134242
59.831181,0.134243
60.133935,0.134244
60.436689,0.134246
60.739444,0.134247
61.042198,0.134248
61.344953,0.134249
61.647707,0.134251
61.950461,0.134252
62.253216,0.134253
62.555970,0.134255
62.858725,0.134256
63.161479,0.134257
63.464233,0.134258
63.766988,0.134260
64.069742,0.134261
64.372497,0.134262
64.675251,0.134263
64.978005,0.134265
65.280760,0.134266
65.583514,0.134267
65.886269,0.134269
66.189023,0.134270
66.491777,0.134271
66.794532,0.134273
67.097286,0.134274
67.400041,0.134275
67.702795,0.134277
68.005549,0.134278
68.308304,0.134279
68.611058,0.134280
68.913813,0.134282
69.216567,0.134283
69.519321,0.134284
69.822076,0.134286
70.124830,0.134287
70.427585,0.134289
70.730339,0.134290
71.033093,0.134291
71.335848,0.134293
71.638602,0.134294
71.941357,0.134295
72.244111,0.134297
72.546865,0.134298
72.849620,0.134299
73.152374,0.134301
73.455129,0.134302
73.757883,0.134304
74.060637,0.134305
74.363392,0.134306
74.666146,0.134308
74.968901,0.134309
75.271655,0.134311
75.574409,0.134312
75.877164,0.134313
76.179918,0.134315
76.482673,0.134316
76.785427,0.134318
77.088181,0.134319
77.390936,0.134320
77.693690,0.134322
77.996445,0.134323
78.299199,0.134325
78.601953,0.134326
78.904708,0.134328
79.207462,0.134329
79.510216,0.134331
79.812971,0.134332
80.115725,0.134333
80.418480,0.134335
80.721234,0.134336
81.023988,0.134338
81.326743,0.134339
81.629497,0.134341
81.932252,0.134342
82.235006,0.134344
82.537760,0.134345
82.840515,0.134347
83.143269,0.134348
83.446024,0.134350
83.748778,0.134351
84.051532,0.134353
84.354287,0.134354
84.657041,0.134356
84.959796,0.134357
85.262550,0.134359
85.565304,0.134360
85.868059,0.134362
86.170813,0.134363
86.473568,0.134365
86.776322,0.134366
87.079076,0.134368
87.381831,0.134370
87.684585,0.134371
87.987340,0.134373
88.290094,0.134374
88.592848,0.134376
88.895603,0.134377
89.198357,0.134379
89.501112,0.134381
89.803866,0.134382
90.106620,0.134384
90.409375,0.134385
90.712129,0.134387
91.014884,0.134388
91.317638,0.134390
91.620392,0.134392
91.923147,0.134393
92.225901,0.134395
92.528656,0.134397
92.831410,0.134398
93.134164,0.134400
93.436919,0.134401
93.739673,0.134403
94.042428,0.134405
94.345182,0.134406
94.647936,0.134408
94.950691,0.134410
95.253445,0.134411
95.556200,0.134413
95.858954,0.134415
96.161708,0.134416
96.464463,0.134418
96.767217,0.134420
97.069972,0.134421
97.372726,0.134423
97.675480,0.134425
97.978235,0.134426
98.280989,0.134428
98.583744,0.134430
98.886498,0.134432
99.189252,0.134433
99.492007,0.134435
99.794761,0.134437
100.097516,0.134438
100.400270,0.134440
100.703024,0.134442
101.005779,0.134444
101.308533,0.134445
101.611288,0.134447
101.914042,0.134449
102.216796,0.134451
102.519551,0.134452
102.822305,0.134454
103.125060,0.134456
103.427814,0.134458
103.730568,0.134459
104.033323,0.134461
104.336077,0.134463
104.638832,0.134465
104.941586,0.134467
105.244340,0.134468
105.547095,0.134470
105.849849,0.134472
106.152604,0.134474
106.455358,0.134476
106.758112,0.134478
107.060867,0.134479
107.363621,0.134481
107.666376,0.134483
107.969130,0.134485
108.271884,0.134487
108.574639,0.134489
108.877393,0.134491
109.180148,0.134492
109.482902,0.134494
109.785656,0.134496
110.088411,0.134498
110.391165,0.134500
110.693920,0.134502
110.996674,0.134504
111.299428,0.134506
111.602183,0.134508
111.904937,0.134510
112.207692,0.134511
112.510446,0.134513
112.813200,0.134515
113.115955,0.134517
113.418709,0.134519
113.721464,0.134521
114.024218,0.134523
114.326972,0.134525
114.629727,0.134527
114.932481,0.134529
115.235236,0.134531
115.537990,0.134533
115.840744,0.134535
116.143499,0.134537
116.446253,0.134539
116.749008,0.134541
117.051762,0.134543
117.354516,0.134545
117.657271,0.134547
117.960025,0.134549
118.262780,0.134551
118.565534,0.134553
118.868288,0.134555
119.171043,0.134557
119.473797,0.134559
119.776552,0.134561
120.079306,0.134563
120.382060,0.134565
120.684815,0.134568
120.987569,0.134570
121.290324,0.134572
121.593078,0.134574
121.895832,0.134576
122.198587,0.134578
122.501341,0.134580
122.804096,0.134582
123.106850,0.134584
123.409604,0.134587
123.712359,0.134589
124.015113,0.134591
124.317868,0.134593
124.620622,0.134595
124.923376,0.134597
125.226131,0.134600
125.528885,0.134602
125.831640,0.134604
126.134394,0.134606
126.437148,0.134608
126.739903,0.134610
127.042657,0.134613
127.345412,0.134615
127.648166,0.134617
127.950920,0.134619
128.253675,0.134622
128.556429,0.134624
128.859184,0.134626
129.161938,0.134628
129.464692,0.134631
129.767447,0.134633
130.070201,0.134635
130.372956,0.134637
130.675710,0.134640
130.978464,0.134642
131.281219,0.134644
131.583973,0.134647
131.886728,0.134649
132.189482,0.134651
132.492236,0.134654
132.794991,0.134656
133.097745,0.134658
133.400500,0.134661
133.703254,0.134663
134.006008,0.134665
134.308763,0.134668
134.611517,0.134670
134.914272,0.134672
135.217026,0.134675
135.519780,0.134677
135.822535,0.134680
136.125289,0.134682
136.428044,0.134684
136.730798,0.134687
137.033552,0.134689
137.336307,0.134692
137.639061,0.134694
137.941816,0.134697
138.244570,0.134699
138.547324,0.134702
138.850079,0.134704
139.152833,0.134707
139.455588,0.134709
139.758342,0.134712
140.061096,0.134714
140.363851,0.134717
140.666605,0.134719
140.969360,0.134722
141.272114,0.134724
141.574868,0.134727
141.877623,0.134729
142.180377,0.134732
142.483132,0.134734
142.785886,0.134737
143.088640,0.134740
143.391395,0.134742
143.694149,0.134745
143.996904,0.134747
144.299658,0.134750
144.602412,0.134753
144.905167,0.134755
145.207921,0.134758
145.510676,0.134761
145.813430,0.134763
146.116184,0.134766
146.418939,0.134769
146.721693,0.134771
147.024448,0.134774
147.327202,0.134777
147.629956,0.134779
147.932711,0.134782
148.235465,0.134785
148.538220,0.134787
148.840974,0.134790
149.143728,0.134793
149.446483,0.134796
149.749237,0.134798
150.051992,0.134801
150.354746,0.134804
150.657500,0.134807
150.960255,0.134810
151.263009,0.134812
151.565764,0.134815
151.868518,0.134818
152.171272,0.134821
152.474027,0.134824
152.776781,0.134827
153.079536,0.134830
153.382290,0.134832
153.685044,0.134835
153.987799,0.134838
154.290553,0.134841
154.593308,0.134844
154.896062,0.134847
155.198816,0.134850
155.501571,0.134853
155.804325,0.134856
156.107080,0.134859
156.409834,0.134862
156.712588,0.134865
157.015343,0.134868
157.318097,0.134871
157.620852,0.134874
157.923606,0.134877
158.226360,0.134880
158.529115,0.134883
158.831869,0.134886
159.134624,0.134889
159.437378,0.134892
159.740132,0.134895
160.042887,0.134898
160.345641,0.134901
160.648396,0.134904
160.951150,0.134907
161.253904,0.134910
161.556659,0.134913
161.859413,0.134917
162.162168,0.134920
162.464922,0.134923
162.767676,0.134926
163.070431,0.134929
163.373185,0.134932
163.675939,0.134936
163.978694,0.134939
164.281448,0.134942
164.584203,0.134945
164.886957,0.134949
165.189711,0.134952
165.492466,0.134955
165.795220,0.134958
166.097975,0.134962
166.400729,0.134965
166.703483,0.134968
167.006238,0.134972
167.308992,0.134975
167.611747,0.134978
167.914501,0.134982
168.217255,0.134985
168.520010,0.134988
168.822764,0.134992
169.125519,0.134995
169.428273,0.134999
169.731027,0.135002
170.033782,0.135005
170.336536,0.135009
170.639291,0.135012
170.942045,0.135016
171.244799,0.135019
171.547554,0.135023
171.850308,0.135026
172.153063,0.135030
172.455817,0.135033
172.758571,0.135037
173.061326,0.135040
173.364080,0.135044
173.666835,0.135048
173.969589,0.135051
174.272343,0.135055
174.575098,0.135058
174.877852,0.135062
175.180607,0.135066
175.483361,0.135069
175.786115,0.135073
176.088870,0.135077
176.391624,0.135080
176.694379,0.135084
176.997133,0.135088
177.299887,0.135092
177.602642,0.135095
177.905396,0.135099
178.208151,0.135103
178.510905,0.135107
178.813659,0.135110
179.116414,0.135114
179.419168,0.135118
179.721923,0.135122
180.024677,0.135126
180.327431,0.135130
180.630186,0.135133
180.932940,0.135137
181.235695,0.135141
181.538449,0.135145
181.841203,0.135149
182.143958,0.135153
182.446712,0.135157
182.749467,0.135161
183.052221,0.135165
183.354975,0.135169
183.657730,0.135173
183.960484,0.135177
184.263239,0.135181
184.565993,0.135185
184.868747,0.135189
185.171502,0.135193
185.474256,0.135197
185.777011,0.135201
186.079765,0.135205
186.382519,0.135210
186.685274,0.135214
186.988028,0.135218
187.290783,0.135222
187.593537,0.135226
187.896291,0.135231
188.199046,0.135235
188.501800,0.135239
188.804555,0.135243
189.107309,0.135248
189.410063,0.135252
189.712818,0.135256
190.015572,0.135260
190.318327,0.135265
190.621081,0.135269
190.923835,0.135274
191.226590,0.135278
191.529344,0.135282
191.832099,0.135287
192.134853,0.135291
192.437607,0.135296
192.740362,0.135300
193.043116,0.135305
193.345871,0.135309
193.648625,0.135314
193.951379,0.135318
194.254134,0.135323
194.556888,0.135327
194.859643,0.135332
195.162397,0.135336
195.465151,0.135341
195.767906,0.135346
196.070660,0.135350
196.373415,0.135355
196.676169,0.135360
196.978923,0.135364
197.281678,0.135369
197.584432,0.135374
197.887187,0.135379
198.189941,0.135383
198.492695,0.135388
198.795450,0.135393
199.098204,0.135398
199.400959,0.135403
199.703713,0.135408
200.006467,0.135413
200.309222,0.135417
200.611976,0.135422
200.914731,0.135427
201.217485,0.135432
201.520239,0.135437
201.822994,0.135442
202.125748,0.135447
202.428503,0.135452
202.731257,0.135457
203.034011,0.135462
203.336766,0.135468
203.639520,0.135473
203.942275,0.135478
204.245029,0.135483
204.547783,0.135488
204.850538,0.135493
205.153292,0.135499
205.456047,0.135504
205.758801,0.135509
206.061555,0.135514
206.364310,0.135520
206.667064,0.135525
206.969819,0.135530
207.272573,0.135536
207.575327,0.135541
207.878082,0.135546
208.180836,0.135552
208.483591,0.135557
208.786345,0.135563
209.089099,0.135568
209.391854,0.135574
209.694608,0.135579
209.997363,0.135585
210.300117,0.135590
210.602871,0.135596
210.905626,0.135602
211.208380,0.135607
211.511135,0.135613
211.813889,0.135619
212.116643,0.135624
212.419398,0.135630
212.722152,0.135636
213.024907,0.135642
213.327661,0.135647
213.630415,0.135653
213.933170,0.135659
214.235924,0.135665
214.538679,0.135671
214.841433,0.135677
215.144187,0.135683
215.446942,0.135689
215.749696,0.135695
216.052451,0.135701
216.355205,0.135707
216.657959,0.135713
216.960714,0.135719
217.263468,0.135725
217.566223,0.135731
217.868977,0.135737
218.171731,0.135744
218.474486,0.135750
218.777240,0.135756
219.079995,0.135762
219.382749,0.135769
219.685503,0.135775
219.988258,0.135781
220.291012,0.135788
220.593767,0.135794
220.896521,0.135801
221.199275,0.135807
221.502030,0.135814
221.804784,0.135820
222.107539,0.135827
222.410293,0.135833
222.713047,0.135840
223.015802,0.135846
223.318556,0.135853
223.621311,0.135860
223.924065,0.135866
224.226819,0.135873
224.529574,0.135880
224.832328,0.135887
225.135083,0.135893
225.437837,0.135900
225.740591,0.135907
226.043346,0.135914
226.346100,0.135921
226.648855,0.135928
226.951609,0.135935
227.254363,0.135942
227.557118,0.135949
227.859872,0.135956
228.162627,0.135963
228.465381,0.135970
228.768135,0.135978
229.070890,0.135985
229.373644,0.135992
229.676399,0.135999
229.979153,0.136007
230.281907,0.136014
230.584662,0.136021
230.887416,0.136029
231.190171,0.136036
231.492925,0.136044
231.795679,0.136051
232.098434,0.136059
232.401188,0.136066
232.703943,0.136074
233.006697,0.136082
233.309451,0.136089
233.612206,0.136097
233.914960,0.136105
234.217715,0.136112
234.520469,0.136120
234.823223,0.136128
235.125978,0.136136
235.428732,0.136144
235.731487,0.136152
236.034241,0.136160
236.336995,0.136168
236.639750,0.136176
236.942504,0.136184
237.245259,0.136192
237.548013,0.136200
237.850767,0.136208
238.153522,0.136217
238.456276,0.136225
238.759031,0.136233
239.061785,0.136242
239.364539,0.136250
239.667294,0.136258
239.970048,0.136267
240.272803,0.136275
240.575557,0.136284
240.878311,0.136293
241.181066,0.136301
241.483820,0.136310
241.786575,0.136319
242.089329,0.136327
242.392083,0.136336
242.694838,0.136345
242.997592,0.136354
243.300347,0.136363
243.603101,0.136372
243.905855,0.136381
244.208610,0.136390
244.511364,0.136399
244.814119,0.136408
245.116873,0.136417
245.419627,0.136426
245.722382,0.136436
246.025136,0.136445
246.327891,0.136454
246.630645,0.136464
246.933399,0.136473
247.236154,0.136482
247.538908,0.136492
247.841662,0.136502
248.144417,0.136511
248.447171,0.136521
248.749926,0.136531
249.052680,0.136540
249.355434,0.136550
249.658189,0.136560
249.960943,0.136570
250.263698,0.136580
250.566452,0.136590
250.869206,0.136600
251.171961,0.136610
251.474715,0.136620
251.777470,0.136630
252.080224,0.136640
252.382978,0.136651
252.685733,0.136661
252.988487,0.136671
253.291242,0.136682
253.593996,0.136692
253.896750,0.136703
254.199505,0.136714
254.502259,0.136724
254.805014,0.136735
255.107768,0.136746
255.410522,0.136756
255.713277,0.136767
256.016031,0.136778
256.318786,0.136789
256.621540,0.136800
256.924294,0.136811
257.227049,0.136822
257.529803,0.136834
257.832558,0.136845
258.135312,0.136856
258.438066,0.136868
258.740821,0.136879
259.043575,0.136890
259.346330,0.136902
259.649084,0.136914
259.951838,0.136925
260.254593,0.136937
260.557347,0.136949
260.860102,0.136961
261.162856,0.136972
261.465610,0.136984
261.768365,0.136996
262.071119,0.137009
262.373874,0.137021
262.676628,0.137033
262.979382,0.137045
263.282137,0.137058
263.584891,0.137070
263.887646,0.137082
264.190400,0.137095
264.493154,0.137108
264.795909,0.137120
265.098663,0.137133
265.401418,0.137146
265.704172,0.137159
266.006926,0.137172
266.309681,0.137185
266.612435,0.137198
266.915190,0.137211
267.217944,0.137224
267.520698,0.137237
267.823453,0.137251
268.126207,0.137264
268.428962,0.137278
268.731716,0.137291
269.034470,0.137305
269.337225,0.137319
269.639979,0.137332
269.942734,0.137346
270.245488,0.137360
270.548242,0.137374
270.850997,0.137388
271.153751,0.137402
271.456506,0.137417
271.759260,0.137431
272.062014,0.137445
272.364769,0.137460
272.667523,0.137475
272.970278,0.137489
273.273032,0.137504
273.575786,0.137519
273.878541,0.137534
274.181295,0.137549
274.484050,0.137564
274.786804,0.137579
275.089558,0.137594
275.392313,0.137609
275.695067,0.137625
275.997822,0.137640
276.300576,0.137656
276.603330,0.137672
276.906085,0.137687
277.208839,0.137703
277.511594,0.137719
277.814348,0.137735
278.117102,0.137751
278.419857,0.137768
278.722611,0.137784
279.025366,0.137800
279.328120,0.137817
279.630874,0.137833
279.933629,0.137850
280.236383,0.137867
280.539138,0.137884
280.841892,0.137901
281.144646,0.137918
281.447401,0.137935
281.750155,0.137952
282.052910,0.137970
282.355664,0.137987
282.658418,0.138005
282.961173,0.138023
283.263927,0.138040
283.566682,0.138058
283.869436,0.138076
284.172190,0.138094
284.474945,0.138113
284.777699,0.138131
285.080454,0.138150
285.383208,0.138168
285.685962,0.138187
285.988717,0.138206
286.291471,0.138225
286.594226,0.138244
286.896980,0.138263
287.199734,0.138282
287.502489,0.138301
287.805243,0.138321
288.107998,0.138340
288.410752,0.138360
288.713506,0.138380
289.016261,0.138400
289.319015,0.138420
289.621770,0.138440
289.924524,0.138461
290.227278,0.138481
290.530033,0.138502
290.832787,0.138523
291.135542,0.138543
291.438296,0.138564
291.741050,0.138586
292.043805,0.138607
292.346559,0.138628
292.649314,0.138650
292.952068,0.138671
293.254822,0.138693
293.557577,0.138715
293.860331,0.138737
294.163086,0.138759
294.465840,0.138782
294.768594,0.138804
295.071349,0.138827
295.374103,0.138850
295.676858,0.138873
295.979612,0.138896
296.282366,0.138919
296.585121,0.138943
296.887875,0.138966
297.190630,0.138990
297.493384,0.139014
297.796138,0.139038
298.098893,0.139062
298.401647,0.139086
298.704402,0.139111
299.007156,0.139135
299.309910,0.139160
299.612665,0.139185
299.915419,0.139211
300.218174,0.139236
300.520928,0.139261
300.823682,0.139287
301.126437,0.139313
301.429191,0.139339
301.731946,0.139365
302.034700,0.139392
302.337454,0.139418
302.640209,0.139445
302.942963,0.139472
303.245718,0.139499
303.548472,0.139526
303.851226,0.139554
304.153981,0.139581
304.456735,0.139609
304.759490,0.139637
305.062244,0.139666
305.364998,0.139694
305.667753,0.139723
305.970507,0.139752
306.273262,0.139781
306.576016,0.139810
306.878770,0.139839
307.181525,0.139869
307.484279,0.139899
307.787034,0.139929
308.089788,0.139959
308.392542,0.139990
308.695297,0.140021
308.998051,0.140052
309.300806,0.140083
309.603560,0.140114
309.906314,0.140146
310.209069,0.140178
310.511823,0.140210
310.814578,0.140242
311.117332,0.140275
311.420086,0.140308
311.722841,0.140341
312.025595,0.140374
312.328350,0.140408
312.631104,0.140442
312.933858,0.140476
313.236613,0.140510
313.539367,0.140544
313.842122,0.140579
314.144876,0.140614
314.447630,0.140650
314.750385,0.140685
315.053139,0.140721
315.355894,0.140757
315.658648,0.140794
315.961402,0.140831
316.264157,0.140868
316.566911,0.140905
316.869666,0.140942
317.172420,0.140980
317.475174,0.141018
317.777929,0.141057
318.080683,0.141096
318.383438,0.141135
318.686192,0.141174
318.988946,0.141214
319.291701,0.141254
319.594455,0.141294
319.897210,0.141335
320.199964,0.141376
320.502718,0.141417
320.805473,0.141458
321.108227,0.141500
321.410982,0.141543
321.713736,0.141585
322.016490,0.141628
322.319245,0.141671
322.621999,0.141715
322.924754,0.141759
323.227508,0.141803
323.530262,0.141848
323.833017,0.141893
324.135771,0.141939
324.438526,0.141984
324.741280,0.142031
325.044034,0.142077
325.346789,0.142124
325.649543,0.142171
325.952298,0.142219
326.255052,0.142267
326.557806,0.142316
326.860561,0.142365
327.163315,0.142414
327.466070,0.142464
327.768824,0.142514
328.071578,0.142565
328.374333,0.142616
328.677087,0.142667
328.979842,0.142719
329.282596,0.142772
329.585350,0.142825
329.888105,0.142878
330.190859,0.142932
330.493614,0.142986
330.796368,0.143041
331.099122,0.143096
331.401877,0.143152
331.704631,0.143208
332.007386,0.143264
332.310140,0.143322
332.612894,0.143379
332.915649,0.143438
333.218403,0.143496
333.521157,0.143556
333.823912,0.143615
334.126666,0.143676
334.429421,0.143737
334.732175,0.143798
335.034929,0.143860
335.337684,0.143923
335.640438,0.143986
335.943193,0.144049
336.245947,0.144114
336.548701,0.144179
336.851456,0.144244
337.154210,0.144310
337.456965,0.144377
337.759719,0.144444
338.062473,0.144512
338.365228,0.144581
338.667982,0.144650
338.970737,0.144720
339.273491,0.144791
339.576245,0.144862
339.879000,0.144934
340.181754,0.145007
340.484509,0.145080
340.787263,0.145154
341.090017,0.145229
341.392772,0.145305
341.695526,0.145381
341.998281,0.145458
342.301035,0.145536
342.603789,0.145614
342.906544,0.145694
343.209298,0.145774
343.512053,0.145855
343.814807,0.145937
344.117561,0.146019
344.420316,0.146103
344.723070,0.146187
345.025825,0.146272
345.328579,0.146358
345.631333,0.146445
345.934088,0.146533
346.236842,0.146621
346.539597,0.146711
346.842351,0.146802
347.145105,0.146893
347.447860,0.146986
347.750614,0.147079
348.053369,0.147173
348.356123,0.147269
348.658877,0.147365
348.961632,0.147463
349.264386,0.147561
349.567141,0.147661
349.869895,0.147761
350.172649,0.147863
350.475404,0.147966
350.778158,0.148070
351.080913,0.148175
351.383667,0.148281
351.686421,0.148388
351.989176,0.148497
352.291930,0.148607
352.594685,0.148718
352.897439,0.148830
353.200193,0.148943
353.502948,0.149058
353.805702,0.149174
354.108457,0.149292
354.411211,0.149410
354.713965,0.149531
355.016720,0.149652
355.319474,0.149775
355.622229,0.149899
355.924983,0.150025
356.227737,0.150152
356.530492,0.150281
356.833246,0.150411
357.136001,0.150543
357.438755,0.150676
357.741509,0.150811
358.044264,0.150948
358.347018,0.151086
358.649773,0.151226
358.952527,0.151367
359.255281,0.151511
359.558036,0.151656
359.860790,0.151802
360.163545,0.151951
360.466299,0.152101
360.769053,0.152254
361.071808,0.152408
361.374562,0.152564
361.677317,0.152722
361.980071,0.152882
362.282825,0.153044
