# rshift,intensity
97.066278,0.039246
97.376603,0.039249
97.686927,0.039252
97.997252,0.039255
98.307577,0.039258
98.617901,0.039261
98.928226,0.039264
99.238550,0.039267
99.548875,0.039270
99.859199,0.039273
100.169524,0.039277
100.479849,0.039280
100.790173,0.039283
101.100498,0.039286
101.410822,0.039289
101.721147,0.039292
102.031471,0.039295
102.341796,0.039298
102.652121,0.039301
102.962445,0.039305
103.272770,0.039308
103.583094,0.039311
103.893419,0.039314
104.203743,0.039317
104.514068,0.039320
104.824392,0.039324
105.134717,0.039327
105.445042,0.039330
105.755366,0.039333
106.065691,0.039336
106.376015,0.039340
106.686340,0.039343
106.996664,0.039346
107.306989,0.039350
107.617314,0.039353
107.927638,0.039356
108.237963,0.039359
108.548287,0.039363
108.858612,0.039366
109.168936,0.039369
109.479261,0.039373
109.789586,0.039376
110.099910,0.039379
110.410235,0.039383
110.720559,0.039386
111.030884,0.039390
111.341208,0.039393
111.651533,0.039396
111.961858,0.039400
112.272182,0.039403
112.582507,0.039407
112.892831,0.039410
113.203156,0.039414
113.513480,0.039417
113.823805,0.039421
114.134130,0.039424
114.444454,0.039428
114.754779,0.039431
115.065103,0.039435
115.375428,0.039438
115.685752,0.039442
115.996077,0.039445
116.306402,0.039449
116.616726,0.039452
116.927051,0.039456
117.237375,0.039460
117.547700,0.039463
117.858024,0.039467
118.168349,0.039471
118.478674,0.039474
118.788998,0.039478
119.099323,0.039482
119.409647,0.039485
119.719972,0.039489
120.030296,0.039493
120.340621,0.039496
120.650946,0.039500
120.961270,0.039504
121.271595,0.039508
121.581919,0.039511
121.892244,0.039515
122.202568,0.039519
122.512893,0.039523
122.823218,0.039526
123.133542,0.039530
123.443867,0.039534
123.754191,0.039538
124.064516,0.039542
124.374840,0.039546
124.685165,0.039550
124.995489,0.039553
125.305814,0.039557
125.616139,0.039561
125.926463,0.039565
126.236788,0.039569
126.547112,0.039573
126.857437,0.039577
127.167761,0.039581
127.478086,0.039585
127.788411,0.039589
128.098735,0.039593
128.409060,0.039597
128.719384,0.039601
129.029709,0.039605
129.340033,0.039609
129.650358,0.039613
129.960683,0.039617
130.271007,0.039622
130.581332,0.039626
130.891656,0.039630
131.201981,0.039634
131.512305,0.039638
131.822630,0.039642
132.132955,0.039646
132.443279,0.039651
132.753604,0.039655
133.063928,0.039659
133.374253,0.039663
133.684577,0.039668
133.994902,0.039672
134.305227,0.039676
134.615551,0.039680
134.925876,0.039685
135.236200,0.039689
135.546525,0.039693
135.856849,0.039698
136.167174,0.039702
136.477499,0.039706
136.787823,0.039711
137.098148,0.039715
137.408472,0.039720
137.718797,0.039724
138.029121,0.039729
138.339446,0.039733
138.649771,0.039737
138.960095,0.039742
139.270420,0.039746
139.580744,0.039751
139.891069,0.039756
140.201393,0.039760
140.511718,0.039765
140.822043,0.039769
141.132367,0.039774
141.442692,0.039778
141.753016,0.039783
142.063341,0.039788
142.373665,0.039792
142.683990,0.039797
142.994314,0.039802
143.304639,0.039806
143.614964,0.039811
143.925288,0.039816
144.235613,0.039821
144.545937,0.039825
144.856262,0.039830
145.166586,0.039835
145.476911,0.039840
145.787236,0.039845
146.097560,0.039850
146.407885,0.039854
146.718209,0.039859
147.028534,0.039864
147.338858,0.039869
147.649183,0.039874
147.959508,0.039879
148.269832,0.039884
148.580157,0.039889
148.890481,0.039894
149.200806,0.039899
149.511130,0.039904
149.821455,0.039909
150.131780,0.039914
150.442104,0.039919
150.752429,0.039924
151.062753,0.039929
151.373078,0.039935
151.683402,0.039940
151.993727,0.039945
152.304052,0.039950
152.614376,0.039955
152.924701,0.039961
153.235025,0.039966
153.545350,0.039971
153.855674,0.039976
154.165999,0.039982
154.476324,0.039987
154.786648,0.039992
155.096973,0.039998
155.407297,0.040003
155.717622,0.040008
156.027946,0.040014
156.338271,0.040019
156.648596,0.040025
156.958920,0.040030
157.269245,0.040036
157.579569,0.040041
157.889894,0.040047
158.200218,0.040052
158.510543,0.040058
158.820868,0.040063
159.131192,0.040069
159.441517,0.040075
159.751841,0.040080
160.062166,0.040086
160.372490,0.040092
160.682815,0.040097
160.993140,0.040103
161.303464,0.040109
161.613789,0.040115
161.924113,0.040120
162.234438,0.040126
162.544762,0.040132
162.855087,0.040138
163.165411,0.040144
163.475736,0.040150
163.786061,0.040156
164.096385,0.040161
164.406710,0.040167
164.717034,0.040173
165.027359,0.040179
165.337683,0.040185
165.648008,0.040192
165.958333,0.040198
166.268657,0.040204
166.578982,0.040210
166.889306,0.040216
167.199631,0.040222
167.509955,0.040228
167.820280,0.040234
168.130605,0.040241
168.440929,0.040247
168.751254,0.040253
169.061578,0.040260
169.371903,0.040266
169.682227,0.040272
169.992552,0.040279
170.302877,0.040285
170.613201,0.040291
170.923526,0.040298
171.233850,0.040304
171.544175,0.040311
171.854499,0.040317
172.164824,0.040324
172.475149,0.040330
172.785473,0.040337
173.095798,0.040344
173.406122,0.040350
173.716447,0.040357
174.026771,0.040364
174.337096,0.040370
174.647421,0.040377
174.957745,0.040384
175.268070,0.040391
175.578394,0.040397
175.888719,0.040404
176.199043,0.040411
176.509368,0.040418
176.819693,0.040425
177.130017,0.040432
177.440342,0.040439
177.750666,0.040446
178.060991,0.040453
178.371315,0.040460
178.681640,0.040467
178.991965,0.040474
179.302289,0.040481
179.612614,0.040488
179.922938,0.040496
180.233263,0.040503
180.543587,0.040510
180.853912,0.040517
181.164237,0.040525
181.474561,0.040532
181.784886,0.040539
182.095210,0.040547
182.405535,0.040554
182.715859,0.040562
183.026184,0.040569
183.336508,0.040576
183.646833,0.040584
183.957158,0.040592
184.267482,0.040599
184.577807,0.040607
184.888131,0.040614
185.198456,0.040622
185.508780,0.040630
185.819105,0.040638
186.129430,0.040645
186.439754,0.040653
186.750079,0.040661
187.060403,0.040669
187.370728,0.040677
187.681052,0.040685
187.991377,0.040693
188.301702,0.040701
188.612026,0.040709
188.922351,0.040717
189.232675,0.040725
189.543000,0.040733
189.853324,0.040741
190.163649,0.040749
190.473974,0.040758
190.784298,0.040766
191.094623,0.040774
191.404947,0.040783
191.715272,0.040791
192.025596,0.040799
192.335921,0.040808
192.646246,0.040816
192.956570,0.040825
193.266895,0.040833
193.577219,0.040842
193.887544,0.040851
194.197868,0.040859
194.508193,0.040868
194.818518,0.040877
195.128842,0.040885
195.439167,0.040894
195.749491,0.040903
196.059816,0.040912
196.370140,0.040921
196.680465,0.040930
196.990790,0.040939
197.301114,0.040948
197.611439,0.040957
197.921763,0.040966
198.232088,0.040975
198.542412,0.040984
198.852737,0.040993
199.163062,0.041003
199.473386,0.041012
199.783711,0.041021
200.094035,0.041031
200.404360,0.041040
200.714684,0.041050
201.025009,0.041059
201.335334,0.041069
201.645658,0.041078
201.955983,0.041088
202.266307,0.041097
202.576632,0.041107
202.886956,0.041117
203.197281,0.041127
203.507605,0.041136
203.817930,0.041146
204.128255,0.041156
204.438579,0.041166
204.748904,0.041176
205.059228,0.041186
205.369553,0.041196
205.679877,0.041206
205.990202,0.041217
206.300527,0.041227
206.610851,0.041237
206.921176,0.041247
207.231500,0.041258
207.541825,0.041268
207.852149,0.041279
208.162474,0.041289
208.472799,0.041300
208.783123,0.041310
209.093448,0.041321
209.403772,0.041332
209.714097,0.041342
210.024421,0.041353
210.334746,0.041364
210.645071,0.041375
210.955395,0.041386
211.265720,0.041397
211.576044,0.041408
211.886369,0.041419
212.196693,0.041430
212.507018,0.041441
212.817343,0.041453
213.127667,0.041464
213.437992,0.041475
213.748316,0.041487
214.058641,0.041498
214.368965,0.041510
214.679290,0.041521
214.989615,0.041533
215.299939,0.041544
215.610264,0.041556
215.920588,0.041568
216.230913,0.041580
216.541237,0.041592
216.851562,0.041604
217.161887,0.041616
217.472211,0.041628
217.782536,0.041640
218.092860,0.041652
218.403185,0.041664
218.713509,0.041676
219.023834,0.041689
219.334159,0.041701
219.644483,0.041714
219.954808,0.041726
220.265132,0.041739
220.575457,0.041751
220.885781,0.041764
221.196106,0.041777
221.506431,0.041790
221.816755,0.041802
222.127080,0.041815
222.437404,0.041828
222.747729,0.041842
223.058053,0.041855
223.368378,0.041868
223.678702,0.041881
223.989027,0.041894
224.299352,0.041908
224.609676,0.041921
224.920001,0.041935
225.230325,0.041948
225.540650,0.041962
225.850974,0.041976
226.161299,0.041990
226.471624,0.042004
226.781948,0.042017
227.092273,0.042031
227.402597,0.042046
227.712922,0.042060
228.023246,0.042074
228.333571,0.042088
228.643896,0.042103
228.954220,0.042117
229.264545,0.042132
229.574869,0.042146
229.885194,0.042161
230.195518,0.042175
230.505843,0.042190
230.816168,0.042205
231.126492,0.042220
231.436817,0.042235
231.747141,0.042250
232.057466,0.042265
232.367790,0.042281
232.678115,0.042296
232.988440,0.042312
233.298764,0.042327
233.609089,0.042343
233.919413,0.042358
234.229738,0.042374
234.540062,0.042390
234.850387,0.042406
235.160712,0.042422
235.471036,0.042438
235.781361,0.042454
236.091685,0.042470
236.402010,0.042487
236.712334,0.042503
237.022659,0.042520
237.332984,0.042536
237.643308,0.042553
237.953633,0.042570
238.263957,0.042587
238.574282,0.042604
238.884606,0.042621
239.194931,0.042638
239.505256,0.042655
239.815580,0.042672
240.125905,0.042690
240.436229,0.042707
240.746554,0.042725
241.056878,0.042743
241.367203,0.042760
241.677527,0.042778
241.987852,0.042796
242.298177,0.042815
242.608501,0.042833
242.918826,0.042851
243.229150,0.042869
243.539475,0.042888
243.849799,0.042907
244.160124,0.042925
244.470449,0.042944
244.780773,0.042963
245.091098,0.042982
245.401422,0.043001
245.711747,0.043021
246.022071,0.043040
246.332396,0.043059
246.642721,0.043079
246.953045,0.043099
247.263370,0.043119
247.573694,0.043138
247.884019,0.043159
248.194343,0.043179
248.504668,0.043199
248.814993,0.043219
249.125317,0.043240
249.435642,0.043260
249.745966,0.043281
250.056291,0.043302
250.366615,0.043323
250.676940,0.043344
250.987265,0.043365
251.297589,0.043387
251.607914,0.043408
251.918238,0.043430
252.228563,0.043452
252.538887,0.043474
252.849212,0.043496
253.159537,0.043518
253.469861,0.043540
253.780186,0.043562
254.090510,0.043585
254.400835,0.043608
254.711159,0.043631
255.021484,0.043654
255.331809,0.043677
255.642133,0.043700
255.952458,0.043723
256.262782,0.043747
256.573107,0.043770
256.883431,0.043794
257.193756,0.043818
257.504081,0.043842
257.814405,0.043867
258.124730,0.043891
258.435054,0.043916
258.745379,0.043940
259.055703,0.043965
259.366028,0.043990
259.676353,0.044015
259.986677,0.044041
260.297002,0.044066
260.607326,0.044092
260.917651,0.044118
261.227975,0.044144
261.538300,0.044170
261.848624,0.044196
262.158949,0.044223
262.469274,0.044250
262.779598,0.044276
263.089923,0.044303
263.400247,0.044331
263.710572,0.044358
264.020896,0.044386
264.331221,0.044413
264.641546,0.044441
264.951870,0.044469
265.262195,0.044498
265.572519,0.044526
265.882844,0.044555
266.193168,0.044584
266.503493,0.044613
266.813818,0.044642
267.124142,0.044672
267.434467,0.044701
267.744791,0.044731
268.055116,0.044761
268.365440,0.044791
268.675765,0.044822
268.986090,0.044853
269.296414,0.044884
269.606739,0.044915
269.917063,0.044946
270.227388,0.044978
270.537712,0.045009
270.848037,0.045041
271.158362,0.045073
271.468686,0.045106
271.779011,0.045139
272.089335,0.045171
272.399660,0.045205
272.709984,0.045238
273.020309,0.045272
273.330634,0.045305
273.640958,0.045340
273.951283,0.045374
274.261607,0.045408
274.571932,0.045443
274.882256,0.045478
275.192581,0.045514
275.502906,0.045549
275.813230,0.045585
276.123555,0.045621
276.433879,0.045658
276.744204,0.045694
277.054528,0.045731
277.364853,0.045768
277.675178,0.045806
277.985502,0.045844
278.295827,0.045882
278.606151,0.045920
278.916476,0.045959
279.226800,0.045998
279.537125,0.046037
279.847450,0.046076
280.157774,0.046116
280.468099,0.046156
280.778423,0.046197
281.088748,0.046238
281.399072,0.046279
281.709397,0.046320
282.019721,0.046362
282.330046,0.046404
282.640371,0.046446
282.950695,0.046489
283.261020,0.046532
283.571344,0.046575
283.881669,0.046619
284.191993,0.046663
284.502318,0.046708
284.812643,0.046752
285.122967,0.046798
285.433292,0.046843
285.743616,0.046889
286.053941,0.046935
286.364265,0.046982
286.674590,0.047029
286.984915,0.047076
287.295239,0.047124
287.605564,0.047173
287.915888,0.047221
288.226213,0.047270
288.536537,0.047320
288.846862,0.047370
289.157187,0.047420
289.467511,0.047471
289.777836,0.047522
290.088160,0.047573
290.398485,0.047625
290.708809,0.047678
291.019134,0.047731
291.329459,0.047784
291.639783,0.047838
291.950108,0.047893
292.260432,0.047947
292.570757,0.048003
292.881081,0.048059
293.191406,0.048115
293.501731,0.048172
293.812055,0.048229
294.122380,0.048287
294.432704,0.048345
294.743029,0.048404
295.053353,0.048464
295.363678,0.048524
295.674003,0.048584
295.984327,0.048645
296.294652,0.048707
296.604976,0.048769
296.915301,0.048832
297.225625,0.048896
297.535950,0.048960
297.846275,0.049024
298.156599,0.049090
298.466924,0.049156
298.777248,0.049222
299.087573,0.049289
299.397897,0.049357
299.708222,0.049426
300.018547,0.049495
300.328871,0.049564
300.639196,0.049635
300.949520,0.049706
301.259845,0.049778
301.570169,0.049851
301.880494,0.049924
302.190818,0.049998
302.501143,0.050073
302.811468,0.050149
303.121792,0.050225
303.432117,0.050302
303.742441,0.050380
304.052766,0.050459
304.363090,0.050539
304.673415,0.050619
304.983740,0.050700
305.294064,0.050783
305.604389,0.050866
305.914713,0.050949
306.225038,0.051034
306.535362,0.051120
306.845687,0.051207
307.156012,0.051294
307.466336,0.051383
307.776661,0.051472
308.086985,0.051562
308.397310,0.051654
308.707634,0.051746
309.017959,0.051840
309.328284,0.051934
309.638608,0.052030
309.948933,0.052127
310.259257,0.052224
310.569582,0.052323
310.879906,0.052423
311.190231,0.052524
311.500556,0.052627
311.810880,0.052730
312.121205,0.052835
312.431529,0.052941
312.741854,0.053048
313.052178,0.053156
313.362503,0.053266
313.672828,0.053377
313.983152,0.053489
314.293477,0.053603
314.603801,0.053718
314.914126,0.053834
315.224450,0.053952
315.534775,0.054071
315.845100,0.054192
316.155424,0.054314
316.465749,0.054438
316.776073,0.054563
317.086398,0.054690
317.396722,0.054818
317.707047,0.054948
318.017372,0.055080
318.327696,0.055213
318.638021,0.055348
318.948345,0.055485
319.258670,0.055623
319.568994,0.055764
319.879319,0.055906
320.189643,0.056049
320.499968,0.056195
320.810293,0.056343
321.120617,0.056492
321.430942,0.056644
321.741266,0.056797
322.051591,0.056953
322.361915,0.057110
322.672240,0.057270
322.982565,0.057432
323.292889,0.057596
323.603214,0.057762
323.913538,0.057930
324.223863,0.058101
324.534187,0.058274
324.844512,0.058449
325.154837,0.058627
325.465161,0.058807
325.775486,0.058989
326.085810,0.059174
326.396135,0.059362
326.706459,0.059552
327.016784,0.059744
327.327109,0.059939
327.637433,0.060137
327.947758,0.060338
328.258082,0.060541
328.568407,0.060747
328.878731,0.060956
329.189056,0.061168
329.499381,0.061382
329.809705,0.061600
330.120030,0.061820
330.430354,0.062044
330.740679,0.062270
331.051003,0.062500
331.361328,0.062732
331.671653,0.062968
331.981977,0.063207
332.292302,0.063449
332.602626,0.063694
332.912951,0.063942
333.223275,0.064194
333.533600,0.064448
333.843925,0.064706
334.154249,0.064968
334.464574,0.065232
334.774898,0.065500
335.085223,0.065771
335.395547,0.066046
335.705872,0.066323
336.016197,0.066604
336.326521,0.066888
336.636846,0.067176
336.947170,0.067467
337.257495,0.067761
337.567819,0.068058
337.878144,0.068358
338.188469,0.068661
338.498793,0.068968
338.809118,0.069277
339.119442,0.069589
339.429767,0.069905
339.740091,0.070223
340.050416,0.070543
340.360740,0.070866
340.671065,0.071192
340.981390,0.071520
341.291714,0.071851
341.602039,0.072183
341.912363,0.072518
342.222688,0.072854
342.533012,0.073192
342.843337,0.073531
343.153662,0.073872
343.463986,0.074214
343.774311,0.074557
344.084635,0.074901
344.394960,0.075245
344.705284,0.075589
345.015609,0.075934
345.325934,0.076278
345.636258,0.076622
345.946583,0.076965
346.256907,0.077307
346.567232,0.077648
346.877556,0.077987
347.187881,0.078325
347.498206,0.078660
347.808530,0.078993
348.118855,0.079323
348.429179,0.079650
348.739504,0.079973
349.049828,0.080293
349.360153,0.080609
349.670478,0.080920
349.980802,0.081227
350.291127,0.081529
350.601451,0.081826
350.911776,0.082117
351.222100,0.082403
351.532425,0.082683
351.842750,0.082956
352.153074,0.083223
352.463399,0.083483
352.773723,0.083737
353.084048,0.083983
353.394372,0.084223
353.704697,0.084455
354.015022,0.084679
354.325346,0.084897
354.635671,0.085106
354.945995,0.085308
355.256320,0.085503
355.566644,0.085690
355.876969,0.085869
356.187294,0.086041
356.497618,0.086205
356.807943,0.086363
357.118267,0.086513
357.428592,0.086656
357.738916,0.086792
358.049241,0.086922
358.359566,0.087045
358.669890,0.087162
358.980215,0.087273
359.290539,0.087379
359.600864,0.087479
359.911188,0.087575
360.221513,0.087665
360.531837,0.087752
360.842162,0.087834
361.152487,0.087912
361.462811,0.087988
361.773136,0.088060
362.083460,0.088130
362.393785,0.088197
362.704109,0.088262
363.014434,0.088326
363.324759,0.088389
363.635083,0.088451
363.945408,0.088512
364.255732,0.088574
364.566057,0.088635
364.876381,0.088697
365.186706,0.088760
365.497031,0.088825
365.807355,0.088890
366.117680,0.088958
366.428004,0.089028
366.738329,0.089100
367.048653,0.089174
367.358978,0.089252
367.669303,0.089333
367.979627,0.089417
368.289952,0.089505
368.600276,0.089597
368.910601,0.089694
369.220925,0.089794
369.531250,0.089899
369.841575,0.090009
370.151899,0.090123
370.462224,0.090243
370.772548,0.090368
371.082873,0.090498
371.393197,0.090634
371.703522,0.090776
372.013847,0.090923
372.324171,0.091077
372.634496,0.091236
372.944820,0.091401
373.255145,0.091573
373.565469,0.091751
373.875794,0.091936
374.186119,0.092127
374.496443,0.092324
374.806768,0.092529
375.117092,0.092740
375.427417,0.092958
375.737741,0.093183
376.048066,0.093414
376.358391,0.093653
376.668715,0.093899
376.979040,0.094152
377.289364,0.094412
377.599689,0.094679
377.910013,0.094953
378.220338,0.095235
378.530663,0.095524
378.840987,0.095820
379.151312,0.096124
379.461636,0.096435
379.771961,0.096754
380.082285,0.097080
380.392610,0.097413
380.702934,0.097754
381.013259,0.098102
381.323584,0.098458
381.633908,0.098822
381.944233,0.099193
382.254557,0.099572
382.564882,0.099958
382.875206,0.100352
383.185531,0.100753
383.495856,0.101162
383.806180,0.101578
384.116505,0.102003
384.426829,0.102435
384.737154,0.102874
385.047478,0.103321
385.357803,0.103776
385.668128,0.104238
385.978452,0.104708
386.288777,0.105185
386.599101,0.105670
386.909426,0.106163
387.219750,0.106663
387.530075,0.107171
387.840400,0.107686
388.150724,0.108209
388.461049,0.108739
388.771373,0.109276
389.081698,0.109821
389.392022,0.110373
389.702347,0.110933
390.012672,0.111499
390.322996,0.112073
390.633321,0.112654
390.943645,0.113242
391.253970,0.113838
391.564294,0.114440
391.874619,0.115049
392.184944,0.115664
392.495268,0.116287
392.805593,0.116916
393.115917,0.117551
393.426242,0.118193
393.736566,0.118841
394.046891,0.119496
394.357216,0.120156
394.667540,0.120823
394.977865,0.121495
395.288189,0.122172
395.598514,0.122856
395.908838,0.123544
396.219163,0.124238
396.529488,0.124936
396.839812,0.125640
397.150137,0.126348
397.460461,0.127060
397.770786,0.127777
398.081110,0.128497
398.391435,0.129221
398.701760,0.129948
399.012084,0.130679
399.322409,0.131412
399.632733,0.132149
399.943058,0.132887
400.253382,0.133628
400.563707,0.134370
400.874031,0.135113
401.184356,0.135858
401.494681,0.136603
401.805005,0.137349
402.115330,0.138095
402.425654,0.138840
402.735979,0.139585
403.046303,0.140328
403.356628,0.141070
403.666953,0.141810
403.977277,0.142547
404.287602,0.143282
404.597926,0.144013
404.908251,0.144740
405.218575,0.145464
405.528900,0.146182
405.839225,0.146895
406.149549,0.147603
406.459874,0.148304
406.770198,0.148998
