# rshift,intensity
60.139292,0.047710
60.442223,0.047716
60.745155,0.047721
61.048086,0.047726
61.351018,0.047731
61.653949,0.047736
61.956881,0.047742
62.259812,0.047747
62.562744,0.047752
62.865675,0.047757
63.168607,0.047763
63.471538,0.047768
63.774470,0.047773
64.077401,0.047778
64.380333,0.047784
64.683264,0.047789
64.986196,0.047794
65.289127,0.047800
65.592059,0.047805
65.894990,0.047811
66.197922,0.047816
66.500853,0.047821
66.803785,0.047827
67.106716,0.047832
67.409648,0.047838
67.712579,0.047843
68.015511,0.047849
68.318442,0.047854
68.621374,0.047860
68.924305,0.047865
69.227237,0.047871
69.530168,0.047876
69.833100,0.047882
70.136031,0.047887
70.438963,0.047893
70.741894,0.047899
71.044826,0.047904
71.347757,0.047910
71.650689,0.047915
71.953620,0.047921
72.256552,0.047927
72.559483,0.047932
72.862415,0.047938
73.165346,0.047944
73.468278,0.047950
73.771209,0.047955
74.074141,0.047961
74.377072,0.047967
74.680004,0.047973
74.982935,0.047978
75.285867,0.047984
75.588798,0.047990
75.891730,0.047996
76.194661,0.048002
76.497593,0.048008
76.800524,0.048013
77.103456,0.048019
77.406387,0.048025
77.709319,0.048031
78.012250,0.048037
78.315182,0.048043
78.618113,0.048049
78.921045,0.048055
79.223976,0.048061
79.526908,0.048067
79.829839,0.048073
80.132771,0.048079
80.435702,0.048085
80.738634,0.048091
81.041565,0.048097
81.344497,0.048104
81.647428,0.048110
81.950360,0.048116
82.253291,0.048122
82.556223,0.048128
82.859154,0.048134
83.162086,0.048141
83.465017,0.048147
83.767949,0.048153
84.070880,0.048159
84.373812,0.048166
84.676743,0.048172
84.979675,0.048178
85.282606,0.048184
85.585538,0.048191
85.888469,0.048197
86.191401,0.048204
86.494332,0.048210
86.797264,0.048216
87.100195,0.048223
87.403127,0.048229
87.706058,0.048236
88.008990,0.048242
88.311921,0.048249
88.614853,0.048255
88.917784,0.048262
89.220716,0.048268
89.523647,0.048275
89.826579,0.048281
90.129510,0.048288
90.432442,0.048294
90.735373,0.048301
91.038305,0.048308
91.341236,0.048314
91.644168,0.048321
91.947099,0.048328
92.250031,0.048334
92.552962,0.048341
92.855894,0.048348
93.158825,0.048355
93.461757,0.048361
93.764688,0.048368
94.067620,0.048375
94.370551,0.048382
94.673483,0.048389
94.976414,0.048396
95.279346,0.048402
95.582277,0.048409
95.885209,0.048416
96.188140,0.048423
96.491072,0.048430
96.794003,0.048437
97.096935,0.048444
97.399866,0.048451
97.702798,0.048458
98.005729,0.048465
98.308661,0.048472
98.611592,0.048479
98.914524,0.048487
99.217455,0.048494
99.520387,0.048501
99.823318,0.048508
100.126250,0.048515
100.429181,0.048522
100.732113,0.048530
101.035044,0.048537
101.337976,0.048544
101.640907,0.048551
101.943839,0.048559
102.246770,0.048566
102.549702,0.048573
102.852633,0.048581
103.155565,0.048588
103.458496,0.048596
103.761428,0.048603
104.064359,0.048610
104.367291,0.048618
104.670222,0.048625
104.973154,0.048633
105.276085,0.048640
105.579017,0.048648
105.881948,0.048656
106.184880,0.048663
106.487811,0.048671
106.790743,0.048678
107.093674,0.048686
107.396606,0.048694
107.699537,0.048701
108.002469,0.048709
108.305400,0.048717
108.608332,0.048725
108.911263,0.048732
109.214195,0.048740
109.517126,0.048748
109.820058,0.048756
110.122989,0.048764
110.425921,0.048772
110.728852,0.048780
111.031784,0.048788
111.334715,0.048796
111.637647,0.048803
111.940578,0.048811
112.243510,0.048820
112.546441,0.048828
112.849373,0.048836
113.152304,0.048844
113.455236,0.048852
113.758167,0.048860
114.061099,0.048868
114.364030,0.048876
114.666962,0.048885
114.969893,0.048893
115.272825,0.048901
115.575756,0.048909
115.878688,0.048918
116.181619,0.048926
116.484551,0.048934
116.787482,0.048943
117.090414,0.048951
117.393345,0.048959
117.696277,0.048968
117.999208,0.048976
118.302140,0.048985
118.605071,0.048993
118.908003,0.049002
119.210934,0.049010
119.513866,0.049019
119.816797,0.049028
120.119729,0.049036
120.422660,0.049045
120.725592,0.049054
121.028523,0.049062
121.331455,0.049071
121.634386,0.049080
121.937318,0.049089
122.240249,0.049098
122.543181,0.049106
122.846112,0.049115
123.149044,0.049124
123.451975,0.049133
123.754907,0.049142
124.057838,0.049151
124.360770,0.049160
124.663701,0.049169
124.966633,0.049178
125.269564,0.049187
125.572496,0.049196
125.875427,0.049205
126.178359,0.049215
126.481290,0.049224
126.784222,0.049233
127.087153,0.049242
127.390085,0.049251
127.693016,0.049261
127.995948,0.049270
128.298879,0.049279
128.601811,0.049289
128.904742,0.049298
129.207674,0.049308
129.510605,0.049317
129.813537,0.049327
130.116468,0.049336
130.419400,0.049346
130.722331,0.049355
131.025263,0.049365
131.328194,0.049374
131.631126,0.049384
131.934057,0.049394
132.236989,0.049404
132.539920,0.049413
132.842852,0.049423
133.145783,0.049433
133.448715,0.049443
133.751646,0.049453
134.054578,0.049463
134.357509,0.049472
134.660441,0.049482
134.963372,0.049492
135.266304,0.049502
135.569235,0.049512
135.872167,0.049523
136.175098,0.049533
136.478030,0.049543
136.780961,0.049553
137.083893,0.049563
137.386824,0.049573
137.689756,0.049584
137.992687,0.049594
138.295619,0.049604
138.598550,0.049615
138.901482,0.049625
139.204413,0.049636
139.507345,0.049646
139.810276,0.049656
140.113208,0.049667
140.416139,0.049678
140.719071,0.049688
141.022002,0.049699
141.324934,0.049709
141.627865,0.049720
141.930797,0.049731
142.233728,0.049742
142.536660,0.049752
142.839591,0.049763
143.142523,0.049774
143.445454,0.049785
143.748386,0.049796
144.051317,0.049807
144.354249,0.049818
144.657180,0.049829
144.960112,0.049840
145.263043,0.049851
145.565975,0.049862
145.868906,0.049873
146.171838,0.049885
146.474769,0.049896
146.777701,0.049907
147.080632,0.049918
147.383564,0.049930
147.686495,0.049941
147.989427,0.049953
148.292358,0.049964
148.595290,0.049976
148.898221,0.049987
149.201153,0.049999
149.504084,0.050010
149.807016,0.050022
150.109947,0.050034
150.412879,0.050045
150.715810,0.050057
151.018742,0.050069
151.321673,0.050081
151.624605,0.050093
151.927536,0.050104
152.230468,0.050116
152.533399,0.050128
152.836331,0.050140
153.139262,0.050152
153.442194,0.050165
153.745125,0.050177
154.048057,0.050189
154.350988,0.050201
154.653920,0.050213
154.956851,0.050226
155.259783,0.050238
155.562714,0.050250
155.865646,0.050263
156.168577,0.050275
156.471509,0.050288
156.774440,0.050300
157.077372,0.050313
157.380303,0.050326
157.683235,0.050338
157.986166,0.050351
158.289098,0.050364
158.592029,0.050377
158.894961,0.050389
159.197892,0.050402
159.500824,0.050415
159.803755,0.050428
160.106687,0.050441
160.409618,0.050454
160.712550,0.050467
161.015481,0.050481
161.318413,0.050494
161.621344,0.050507
161.924276,0.050520
162.227207,0.050534
162.530139,0.050547
162.833070,0.050560
163.136002,0.050574
163.438933,0.050587
163.741865,0.050601
164.044796,0.050615
164.347728,0.050628
164.650659,0.050642
164.953591,0.050656
165.256522,0.050670
165.559454,0.050683
165.862385,0.050697
166.165317,0.050711
166.468248,0.050725
166.771180,0.050739
167.074111,0.050753
167.377043,0.050767
167.679974,0.050782
167.982906,0.050796
168.285837,0.050810
168.588769,0.050824
168.891700,0.050839
169.194632,0.050853
169.497563,0.050868
169.800495,0.050882
170.103426,0.050897
170.406358,0.050911
170.709289,0.050926
171.012221,0.050941
171.315152,0.050956
171.618084,0.050971
171.921015,0.050985
172.223947,0.051000
172.526878,0.051015
172.829810,0.051030
173.132741,0.051046
173.435673,0.051061
173.738604,0.051076
174.041536,0.051091
174.344467,0.051106
174.647399,0.051122
174.950330,0.051137
175.253262,0.051153
175.556193,0.051168
175.859125,0.051184
176.162056,0.051200
176.464988,0.051215
176.767919,0.051231
177.070851,0.051247
177.373782,0.051263
177.676714,0.051279
177.979645,0.051295
178.282577,0.051311
178.585508,0.051327
178.888440,0.051343
179.191371,0.051359
179.494303,0.051376
179.797234,0.051392
180.100166,0.051408
180.403097,0.051425
180.706029,0.051441
181.008960,0.051458
181.311892,0.051475
181.614823,0.051491
181.917755,0.051508
182.220686,0.051525
182.523618,0.051542
182.826549,0.051559
183.129481,0.051576
183.432412,0.051593
183.735344,0.051610
184.038275,0.051627
184.341207,0.051645
184.644138,0.051662
184.947070,0.051679
185.250001,0.051697
185.552933,0.051714
185.855864,0.051732
186.158796,0.051750
186.461727,0.051767
186.764659,0.051785
187.067590,0.051803
187.370522,0.051821
187.673453,0.051839
187.976385,0.051857
188.279316,0.051875
188.582248,0.051893
188.885179,0.051912
189.188111,0.051930
189.491042,0.051948
189.793974,0.051967
190.096905,0.051986
190.399837,0.052004
190.702768,0.052023
191.005700,0.052042
191.308631,0.052061
191.611563,0.052079
191.914494,0.052098
192.217426,0.052118
192.520357,0.052137
192.823289,0.052156
193.126220,0.052175
193.429152,0.052195
193.732083,0.052214
194.035015,0.052234
194.337946,0.052253
194.640878,0.052273
194.943809,0.052293
195.246741,0.052312
195.549672,0.052332
195.852604,0.052352
196.155535,0.052372
196.458467,0.052393
196.761398,0.052413
197.064330,0.052433
197.367261,0.052454
197.670193,0.052474
197.973124,0.052495
198.276056,0.052515
198.578987,0.052536
198.881919,0.052557
199.184850,0.052578
199.487782,0.052599
199.790713,0.052620
200.093645,0.052641
200.396576,0.052662
200.699508,0.052683
201.002439,0.052705
201.305371,0.052726
201.608302,0.052748
201.911234,0.052770
202.214165,0.052791
202.517097,0.052813
202.820028,0.052835
203.122960,0.052857
203.425891,0.052879
203.728823,0.052901
204.031754,0.052924
204.334686,0.052946
204.637617,0.052969
204.940549,0.052991
205.243480,0.053014
205.546412,0.053037
205.849343,0.053059
206.152275,0.053082
206.455206,0.053105
206.758138,0.053129
207.061069,0.053152
207.364001,0.053175
207.666932,0.053199
207.969864,0.053222
208.272795,0.053246
208.575727,0.053270
208.878658,0.053293
209.181590,0.053317
209.484521,0.053341
209.787453,0.053365
210.090384,0.053390
210.393316,0.053414
210.696247,0.053439
210.999179,0.053463
211.302110,0.053488
211.605042,0.053512
211.907973,0.053537
212.210905,0.053562
212.513836,0.053587
212.816768,0.053613
213.119699,0.053638
213.422631,0.053663
213.725562,0.053689
214.028494,0.053715
214.331425,0.053740
214.634357,0.053766
214.937288,0.053792
215.240220,0.053818
215.543151,0.053844
215.846083,0.053871
216.149014,0.053897
216.451946,0.053924
216.754877,0.053950
217.057809,0.053977
217.360740,0.054004
217.663672,0.054031
217.966603,0.054058
218.269535,0.054086
218.572466,0.054113
218.875398,0.054140
219.178329,0.054168
219.481261,0.054196
219.784192,0.054224
220.087124,0.054252
220.390055,0.054280
220.692987,0.054308
220.995918,0.054337
221.298850,0.054365
221.601781,0.054394
221.904713,0.054422
222.207644,0.054451
222.510576,0.054480
222.813507,0.054510
223.116439,0.054539
223.419370,0.054568
223.722302,0.054598
224.025233,0.054628
224.328165,0.054658
224.631096,0.054688
224.934028,0.054718
225.236959,0.054748
225.539891,0.054778
225.842822,0.054809
226.145754,0.054840
226.448685,0.054870
226.751617,0.054901
227.054548,0.054933
227.357480,0.054964
227.660411,0.054995
227.963343,0.055027
228.266274,0.055059
228.569206,0.055091
228.872137,0.055123
229.175069,0.055155
229.478000,0.055187
229.780932,0.055220
230.083863,0.055252
230.386795,0.055285
230.689726,0.055318
230.992658,0.055351
231.295589,0.055384
231.598521,0.055418
231.901452,0.055451
232.204384,0.055485
232.507315,0.055519
232.810247,0.055553
233.113178,0.055588
233.416110,0.055622
233.719041,0.055657
234.021973,0.055691
234.324904,0.055726
234.627836,0.055761
234.930767,0.055797
235.233699,0.055832
235.536630,0.055868
235.839562,0.055904
236.142493,0.055940
236.445425,0.055976
236.748356,0.056012
237.051288,0.056049
237.354219,0.056085
237.657151,0.056122
237.960082,0.056159
238.263014,0.056197
238.565945,0.056234
238.868877,0.056272
239.171808,0.056310
239.474740,0.056348
239.777671,0.056386
240.080603,0.056425
240.383534,0.056463
240.686466,0.056502
240.989397,0.056541
241.292329,0.056580
241.595260,0.056620
241.898192,0.056659
242.201123,0.056699
242.504055,0.056739
242.806986,0.056780
243.109918,0.056820
243.412849,0.056861
243.715781,0.056902
244.018712,0.056943
244.321644,0.056984
244.624575,0.057026
244.927507,0.057068
245.230438,0.057110
245.533370,0.057152
245.836301,0.057194
246.139233,0.057237
246.442164,0.057280
246.745096,0.057323
247.048027,0.057366
247.350959,0.057410
247.653890,0.057454
247.956822,0.057498
248.259753,0.057542
248.562685,0.057587
248.865616,0.057632
249.168548,0.057677
249.471479,0.057722
249.774411,0.057768
250.077342,0.057813
250.380274,0.057859
250.683205,0.057906
250.986137,0.057952
251.289068,0.057999
251.592000,0.058046
251.894931,0.058094
252.197863,0.058141
252.500794,0.058189
252.803726,0.058237
253.106657,0.058286
253.409589,0.058334
253.712520,0.058383
254.015452,0.058433
254.318383,0.058482
254.621315,0.058532
254.924246,0.058582
255.227178,0.058632
255.530109,0.058683
255.833041,0.058734
256.135972,0.058785
256.438904,0.058837
256.741835,0.058889
257.044767,0.058941
257.347698,0.058994
257.650630,0.059046
257.953561,0.059099
258.256493,0.059153
258.559424,0.059207
258.862356,0.059261
259.165287,0.059315
259.468219,0.059370
259.771150,0.059425
260.074082,0.059480
260.377013,0.059536
260.679945,0.059592
260.982876,0.059648
261.285808,0.059705
261.588739,0.059762
261.891671,0.059819
262.194602,0.059877
262.497534,0.059935
262.800465,0.059993
263.103397,0.060052
263.406328,0.060111
263.709260,0.060171
264.012191,0.060231
264.315123,0.060291
264.618054,0.060352
264.920986,0.060413
265.223917,0.060474
265.526849,0.060536
265.829781,0.060598
266.132712,0.060661
266.435644,0.060724
266.738575,0.060787
267.041507,0.060851
267.344438,0.060915
267.647370,0.060979
267.950301,0.061044
268.253233,0.061110
268.556164,0.061176
268.859096,0.061242
269.162027,0.061309
269.464959,0.061376
269.767890,0.061443
270.070822,0.061511
270.373753,0.061580
270.676685,0.061649
270.979616,0.061718
271.282548,0.061788
271.585479,0.061858
271.888411,0.061929
272.191342,0.062000
272.494274,0.062072
272.797205,0.062144
273.100137,0.062217
273.403068,0.062290
273.706000,0.062364
274.008931,0.062438
274.311863,0.062512
274.614794,0.062588
274.917726,0.062663
275.220657,0.062740
275.523589,0.062816
275.826520,0.062894
276.129452,0.062971
276.432383,0.063050
276.735315,0.063129
277.038246,0.063208
277.341178,0.063288
277.644109,0.063369
277.947041,0.063450
278.249972,0.063532
278.552904,0.063614
278.855835,0.063697
279.158767,0.063780
279.461698,0.063864
279.764630,0.063949
280.067561,0.064035
280.370493,0.064120
280.673424,0.064207
280.976356,0.064294
281.279287,0.064382
281.582219,0.064471
281.885150,0.064560
282.188082,0.064650
282.491013,0.064740
282.793945,0.064831
283.096876,0.064923
283.399808,0.065016
283.702739,0.065109
284.005671,0.065203
284.308602,0.065298
284.611534,0.065393
284.914465,0.065489
285.217397,0.065586
285.520328,0.065684
285.823260,0.065782
286.126191,0.065881
286.429123,0.065981
286.732054,0.066082
287.034986,0.066183
287.337917,0.066286
287.640849,0.066389
287.943780,0.066493
288.246712,0.066597
288.549643,0.066703
288.852575,0.066809
289.155506,0.066917
289.458438,0.067025
289.761369,0.067134
290.064301,0.067244
290.367232,0.067355
290.670164,0.067467
290.973095,0.067579
291.276027,0.067693
291.578958,0.067807
291.881890,0.067923
292.184821,0.068040
292.487753,0.068157
292.790684,0.068275
293.093616,0.068395
293.396547,0.068515
293.699479,0.068637
294.002410,0.068760
294.305342,0.068883
294.608273,0.069008
294.911205,0.069134
295.214136,0.069261
295.517068,0.069389
295.819999,0.069518
296.122931,0.069648
296.425862,0.069780
296.728794,0.069912
297.031725,0.070046
297.334657,0.070181
297.637588,0.070317
297.940520,0.070455
298.243451,0.070593
298.546383,0.070733
298.849314,0.070875
299.152246,0.071017
299.455177,0.071161
299.758109,0.071307
300.061040,0.071453
300.363972,0.071601
300.666903,0.071751
300.969835,0.071901
301.272766,0.072054
301.575698,0.072207
301.878629,0.072363
302.181561,0.072519
302.484492,0.072678
302.787424,0.072837
303.090355,0.072999
303.393287,0.073162
303.696218,0.073326
303.999150,0.073492
304.302081,0.073660
304.605013,0.073830
304.907944,0.074001
305.210876,0.074174
305.513807,0.074349
305.816739,0.074525
306.119670,0.074703
306.422602,0.074884
306.725533,0.075066
307.028465,0.075250
307.331396,0.075435
307.634328,0.075623
307.937259,0.075813
308.240191,0.076005
308.543122,0.076199
308.846054,0.076395
309.148985,0.076593
309.451917,0.076793
309.754848,0.076995
310.057780,0.077200
310.360711,0.077407
310.663643,0.077616
310.966574,0.077828
311.269506,0.078041
311.572437,0.078258
311.875369,0.078476
312.178300,0.078697
312.481232,0.078921
312.784163,0.079147
313.087095,0.079376
313.390026,0.079608
313.692958,0.079842
313.995889,0.080079
314.298821,0.080319
314.601752,0.080561
314.904684,0.080807
315.207615,0.081055
315.510547,0.081306
315.813478,0.081561
316.116410,0.081818
316.419341,0.082079
316.722273,0.082343
317.025204,0.082610
317.328136,0.082880
317.631067,0.083154
317.933999,0.083431
318.236930,0.083711
318.539862,0.083996
318.842793,0.084283
319.145725,0.084575
319.448656,0.084870
319.751588,0.085169
320.054519,0.085472
320.357451,0.085778
320.660382,0.086089
320.963314,0.086404
321.266245,0.086723
321.569177,0.087046
321.872108,0.087373
322.175040,0.087705
322.477971,0.088041
322.780903,0.088382
323.083834,0.088728
323.386766,0.089078
323.689697,0.089433
323.992629,0.089793
324.295560,0.090157
324.598492,0.090527
324.901423,0.090902
325.204355,0.091282
325.507286,0.091668
325.810218,0.092059
326.113149,0.092455
326.416081,0.092857
326.719012,0.093265
327.021944,0.093679
327.324875,0.094098
327.627807,0.094524
327.930738,0.094956
328.233670,0.095393
328.536601,0.095838
328.839533,0.096288
329.142464,0.096746
329.445396,0.097210
329.748327,0.097680
330.051259,0.098158
330.354190,0.098642
330.657122,0.099134
330.960053,0.099633
331.262985,0.100140
331.565916,0.100653
331.868848,0.101175
332.171779,0.101704
332.474711,0.102241
332.777642,0.102785
333.080574,0.103338
333.383505,0.103899
333.686437,0.104468
333.989368,0.105046
334.292300,0.105632
334.595231,0.106226
334.898163,0.106829
335.201094,0.107441
335.504026,0.108062
335.806957,0.108691
336.109889,0.109330
336.412820,0.109978
336.715752,0.110635
337.018683,0.111301
337.321615,0.111976
337.624546,0.112661
337.927478,0.113354
338.230409,0.114058
338.533341,0.114770
338.836272,0.115492
339.139204,0.116224
339.442135,0.116965
339.745067,0.117715
340.047998,0.118474
340.350930,0.119243
340.653861,0.120020
340.956793,0.120807
341.259724,0.121602
341.562656,0.122407
341.865587,0.123219
342.168519,0.124041
342.471450,0.124870
342.774382,0.125707
343.077313,0.126552
343.380245,0.127404
343.683176,0.128264
343.986108,0.129129
344.289039,0.130002
344.591971,0.130880
344.894902,0.131763
345.197834,0.132651
345.500765,0.133544
345.803697,0.134441
346.106628,0.135340
346.409560,0.136243
346.712491,0.137147
347.015423,0.138052
347.318354,0.138958
347.621286,0.139864
347.924217,0.140768
348.227149,0.141671
348.530080,0.142571
348.833012,0.143466
349.135943,0.144358
349.438875,0.145243
349.741806,0.146122
350.044738,0.146993
350.347669,0.147856
350.650601,0.148709
350.953532,0.149551
351.256464,0.150381
351.559395,0.151198
351.862327,0.152002
352.165258,0.152790
352.468190,0.153563
352.771121,0.154318
353.074053,0.155056
353.376984,0.155775
353.679916,0.156474
353.982847,0.157152
354.285779,0.157809
354.588710,0.158444
354.891642,0.159056
355.194573,0.159645
355.497505,0.160209
355.800436,0.160749
356.103368,0.161264
356.406299,0.161754
356.709231,0.162219
357.012162,0.162657
357.315094,0.163070
357.618025,0.163458
357.920957,0.163820
358.223888,0.164156
358.526820,0.164468
358.829751,0.164754
359.132683,0.165017
359.435614,0.165256
359.738546,0.165471
360.041477,0.165664
360.344409,0.165836
360.647340,0.165987
360.950272,0.166117
361.253203,0.166229
361.556135,0.166322
361.859066,0.166399
362.161998,0.166459
362.464929,0.166504
362.767861,0.166536
363.070792,0.166555
363.373724,0.166562
363.676655,0.166558
363.979587,0.166546
364.282518,0.166525
