# rshift,intensity
56.225983,0.209335
56.538278,0.209339
56.850573,0.209343
57.162868,0.209347
57.475163,0.209351
57.787459,0.209355
58.099754,0.209359
58.412049,0.209363
58.724344,0.209367
59.036639,0.209372
59.348935,0.209376
59.661230,0.209380
59.973525,0.209384
60.285820,0.209388
60.598115,0.209392
60.910411,0.209396
61.222706,0.209400
61.535001,0.209404
61.847296,0.209409
62.159591,0.209413
62.471887,0.209417
62.784182,0.209421
63.096477,0.209425
63.408772,0.209430
63.721067,0.209434
64.033362,0.209438
64.345658,0.209442
64.657953,0.209446
64.970248,0.209451
65.282543,0.209455
65.594838,0.209459
65.907134,0.209464
66.219429,0.209468
66.531724,0.209472
66.844019,0.209477
67.156314,0.209481
67.468610,0.209485
67.780905,0.209490
68.093200,0.209494
68.405495,0.209499
68.717790,0.209503
69.030086,0.209507
69.342381,0.209512
69.654676,0.209516
69.966971,0.209521
70.279266,0.209525
70.591562,0.209530
70.903857,0.209534
71.216152,0.209539
71.528447,0.209543
71.840742,0.209548
72.153038,0.209553
72.465333,0.209557
72.777628,0.209562
73.089923,0.209566
73.402218,0.209571
73.714514,0.209576
74.026809,0.209580
74.339104,0.209585
74.651399,0.209589
74.963694,0.209594
75.275990,0.209599
75.588285,0.209604
75.900580,0.209608
76.212875,0.209613
76.525170,0.209618
76.837465,0.209623
77.149761,0.209627
77.462056,0.209632
77.774351,0.209637
78.086646,0.209642
78.398941,0.209647
78.711237,0.209651
79.023532,0.209656
79.335827,0.209661
79.648122,0.209666
79.960417,0.209671
80.272713,0.209676
80.585008,0.209681
80.897303,0.209686
81.209598,0.209691
81.521893,0.209696
81.834189,0.209701
82.146484,0.209706
82.458779,0.209711
82.771074,0.209716
83.083369,0.209721
83.395665,0.209726
83.707960,0.209731
84.020255,0.209736
84.332550,0.209741
84.644845,0.209746
84.957141,0.209752
85.269436,0.209757
85.581731,0.209762
85.894026,0.209767
86.206321,0.209772
86.518617,0.209778
86.830912,0.209783
87.143207,0.209788
87.455502,0.209793
87.767797,0.209799
88.080093,0.209804
88.392388,0.209809
88.704683,0.209815
89.016978,0.209820
89.329273,0.209825
89.641568,0.209831
89.953864,0.209836
90.266159,0.209842
90.578454,0.209847
90.890749,0.209852
91.203044,0.209858
91.515340,0.209863
91.827635,0.209869
92.139930,0.209874
92.452225,0.209880
92.764520,0.209885
93.076816,0.209891
93.389111,0.209897
93.701406,0.209902
94.013701,0.209908
94.325996,0.209914
94.638292,0.209919
94.950587,0.209925
95.262882,0.209931
95.575177,0.209936
95.887472,0.209942
96.199768,0.209948
96.512063,0.209953
96.824358,0.209959
97.136653,0.209965
97.448948,0.209971
97.761244,0.209977
98.073539,0.209983
98.385834,0.209988
98.698129,0.209994
99.010424,0.210000
99.322720,0.210006
99.635015,0.210012
99.947310,0.210018
100.259605,0.210024
100.571900,0.210030
100.884196,0.210036
101.196491,0.210042
101.508786,0.210048
101.821081,0.210054
102.133376,0.210060
102.445671,0.210067
102.757967,0.210073
103.070262,0.210079
103.382557,0.210085
103.694852,0.210091
104.007147,0.210097
104.319443,0.210104
104.631738,0.210110
104.944033,0.210116
105.256328,0.210123
105.568623,0.210129
105.880919,0.210135
106.193214,0.210142
106.505509,0.210148
106.817804,0.210154
107.130099,0.210161
107.442395,0.210167
107.754690,0.210174
108.066985,0.210180
108.379280,0.210187
108.691575,0.210193
109.003871,0.210200
109.316166,0.210206
109.628461,0.210213
109.940756,0.210220
110.253051,0.210226
110.565347,0.210233
110.877642,0.210240
111.189937,0.210246
111.502232,0.210253
111.814527,0.210260
112.126823,0.210267
112.439118,0.210273
112.751413,0.210280
113.063708,0.210287
113.376003,0.210294
113.688299,0.210301
114.000594,0.210308
114.312889,0.210315
114.625184,0.210321
114.937479,0.210328
115.249775,0.210335
115.562070,0.210342
115.874365,0.210350
116.186660,0.210357
116.498955,0.210364
116.811250,0.210371
117.123546,0.210378
117.435841,0.210385
117.748136,0.210392
118.060431,0.210400
118.372726,0.210407
118.685022,0.210414
118.997317,0.210421
119.309612,0.210429
119.621907,0.210436
119.934202,0.210443
120.246498,0.210451
120.558793,0.210458
120.871088,0.210466
121.183383,0.210473
121.495678,0.210481
121.807974,0.210488
122.120269,0.210496
122.432564,0.210503
122.744859,0.210511
123.057154,0.210518
123.369450,0.210526
123.681745,0.210534
123.994040,0.210541
124.306335,0.210549
124.618630,0.210557
124.930926,0.210565
125.243221,0.210572
125.555516,0.210580
125.867811,0.210588
126.180106,0.210596
126.492402,0.210604
126.804697,0.210612
127.116992,0.210620
127.429287,0.210628
127.741582,0.210636
128.053878,0.210644
128.366173,0.210652
128.678468,0.210660
128.990763,0.210668
129.303058,0.210677
129.615353,0.210685
129.927649,0.210693
130.239944,0.210701
130.552239,0.210710
130.864534,0.210718
131.176829,0.210726
131.489125,0.210735
131.801420,0.210743
132.113715,0.210751
132.426010,0.210760
132.738305,0.210768
133.050601,0.210777
133.362896,0.210785
133.675191,0.210794
133.987486,0.210803
134.299781,0.210811
134.612077,0.210820
134.924372,0.210829
135.236667,0.210837
135.548962,0.210846
135.861257,0.210855
136.173553,0.210864
136.485848,0.210873
136.798143,0.210882
137.110438,0.210891
137.422733,0.210900
137.735029,0.210909
138.047324,0.210918
138.359619,0.210927
138.671914,0.210936
138.984209,0.210945
139.296505,0.210954
139.608800,0.210963
139.921095,0.210973
140.233390,0.210982
140.545685,0.210991
140.857981,0.211001
141.170276,0.211010
141.482571,0.211019
141.794866,0.211029
142.107161,0.211038
142.419456,0.211048
142.731752,0.211057
143.044047,0.211067
143.356342,0.211077
143.668637,0.211086
143.980932,0.211096
144.293228,0.211106
144.605523,0.211115
144.917818,0.211125
145.230113,0.211135
145.542408,0.211145
145.854704,0.211155
146.166999,0.211165
146.479294,0.211175
146.791589,0.211185
147.103884,0.211195
147.416180,0.211205
147.728475,0.211215
148.040770,0.211225
148.353065,0.211236
148.665360,0.211246
148.977656,0.211256
149.289951,0.211267
149.602246,0.211277
149.914541,0.211287
150.226836,0.211298
150.539132,0.211308
150.851427,0.211319
151.163722,0.211330
151.476017,0.211340
151.788312,0.211351
152.100608,0.211362
152.412903,0.211372
152.725198,0.211383
153.037493,0.211394
153.349788,0.211405
153.662084,0.211416
153.974379,0.211427
154.286674,0.211438
154.598969,0.211449
154.911264,0.211460
155.223559,0.211471
155.535855,0.211482
155.848150,0.211494
156.160445,0.211505
156.472740,0.211516
156.785035,0.211528
157.097331,0.211539
157.409626,0.211550
157.721921,0.211562
158.034216,0.211574
158.346511,0.211585
158.658807,0.211597
158.971102,0.211608
159.283397,0.211620
159.595692,0.211632
159.907987,0.211644
160.220283,0.211656
160.532578,0.211668
160.844873,0.211680
161.157168,0.211692
161.469463,0.211704
161.781759,0.211716
162.094054,0.211728
162.406349,0.211740
162.718644,0.211753
163.030939,0.211765
163.343235,0.211777
163.655530,0.211790
163.967825,0.211802
164.280120,0.211815
164.592415,0.211827
164.904711,0.211840
165.217006,0.211853
165.529301,0.211865
165.841596,0.211878
166.153891,0.211891
166.466187,0.211904
166.778482,0.211917
167.090777,0.211930
167.403072,0.211943
167.715367,0.211956
168.027662,0.211969
168.339958,0.211982
168.652253,0.211996
168.964548,0.212009
169.276843,0.212022
169.589138,0.212036
169.901434,0.212049
170.213729,0.212063
170.526024,0.212077
170.838319,0.212090
171.150614,0.212104
171.462910,0.212118
171.775205,0.212132
172.087500,0.212146
172.399795,0.212160
172.712090,0.212174
173.024386,0.212188
173.336681,0.212202
173.648976,0.212216
173.961271,0.212230
174.273566,0.212245
174.585862,0.212259
174.898157,0.212274
175.210452,0.212288
175.522747,0.212303
175.835042,0.212317
176.147338,0.212332
176.459633,0.212347
176.771928,0.212362
177.084223,0.212377
177.396518,0.212392
177.708814,0.212407
178.021109,0.212422
178.333404,0.212437
178.645699,0.212452
178.957994,0.212468
179.270290,0.212483
179.582585,0.212498
179.894880,0.212514
180.207175,0.212530
180.519470,0.212545
180.831765,0.212561
181.144061,0.212577
181.456356,0.212593
181.768651,0.212609
182.080946,0.212625
182.393241,0.212641
182.705537,0.212657
183.017832,0.212673
183.330127,0.212689
183.642422,0.212706
183.954717,0.212722
184.267013,0.212739
184.579308,0.212755
184.891603,0.212772
185.203898,0.212789
185.516193,0.212806
185.828489,0.212823
186.140784,0.212840
186.453079,0.212857
186.765374,0.212874
187.077669,0.212891
187.389965,0.212908
187.702260,0.212926
188.014555,0.212943
188.326850,0.212961
188.639145,0.212978
188.951441,0.212996
189.263736,0.213014
189.576031,0.213032
189.888326,0.213050
190.200621,0.213068
190.512917,0.213086
190.825212,0.213104
191.137507,0.213122
191.449802,0.213141
191.762097,0.213159
192.074393,0.213178
192.386688,0.213197
192.698983,0.213215
193.011278,0.213234
193.323573,0.213253
193.635868,0.213272
193.948164,0.213291
194.260459,0.213310
194.572754,0.213330
194.885049,0.213349
195.197344,0.213369
195.509640,0.213388
195.821935,0.213408
196.134230,0.213428
196.446525,0.213447
196.758820,0.213467
197.071116,0.213487
197.383411,0.213508
197.695706,0.213528
198.008001,0.213548
198.320296,0.213569
198.632592,0.213589
198.944887,0.213610
199.257182,0.213631
199.569477,0.213651
199.881772,0.213672
200.194068,0.213693
200.506363,0.213715
200.818658,0.213736
201.130953,0.213757
201.443248,0.213779
201.755544,0.213800
202.067839,0.213822
202.380134,0.213844
202.692429,0.213866
203.004724,0.213888
203.317020,0.213910
203.629315,0.213932
203.941610,0.213955
204.253905,0.213977
204.566200,0.214000
204.878496,0.214022
205.190791,0.214045
205.503086,0.214068
205.815381,0.214091
206.127676,0.214114
206.439971,0.214138
206.752267,0.214161
207.064562,0.214185
207.376857,0.214208
207.689152,0.214232
208.001447,0.214256
208.313743,0.214280
208.626038,0.214304
208.938333,0.214329
209.250628,0.214353
209.562923,0.214378
209.875219,0.214402
210.187514,0.214427
210.499809,0.214452
210.812104,0.214477
211.124399,0.214502
211.436695,0.214528
211.748990,0.214553
212.061285,0.214579
212.373580,0.214604
212.685875,0.214630
212.998171,0.214656
213.310466,0.214682
213.622761,0.214709
213.935056,0.214735
214.247351,0.214762
214.559647,0.214788
214.871942,0.214815
215.184237,0.214842
215.496532,0.214869
215.808827,0.214897
216.121123,0.214924
216.433418,0.214952
216.745713,0.214979
217.058008,0.215007
217.370303,0.215035
217.682599,0.215064
217.994894,0.215092
218.307189,0.215121
218.619484,0.215149
218.931779,0.215178
219.244075,0.215207
219.556370,0.215236
219.868665,0.215266
220.180960,0.215295
220.493255,0.215325
220.805550,0.215354
221.117846,0.215384
221.430141,0.215415
221.742436,0.215445
222.054731,0.215475
222.367026,0.215506
222.679322,0.215537
222.991617,0.215568
223.303912,0.215599
223.616207,0.215631
223.928502,0.215662
224.240798,0.215694
224.553093,0.215726
224.865388,0.215758
225.177683,0.215790
225.489978,0.215823
225.802274,0.215855
226.114569,0.215888
226.426864,0.215921
226.739159,0.215954
227.051454,0.215988
227.363750,0.216021
227.676045,0.216055
227.988340,0.216089
228.300635,0.216123
228.612930,0.216158
228.925226,0.216192
229.237521,0.216227
229.549816,0.216262
229.862111,0.216298
230.174406,0.216333
230.486702,0.216369
230.798997,0.216404
231.111292,0.216441
231.423587,0.216477
231.735882,0.216513
232.048178,0.216550
232.360473,0.216587
232.672768,0.216624
232.985063,0.216662
233.297358,0.216699
233.609653,0.216737
233.921949,0.216775
234.234244,0.216814
234.546539,0.216852
234.858834,0.216891
235.171129,0.216930
235.483425,0.216969
235.795720,0.217009
236.108015,0.217048
236.420310,0.217088
236.732605,0.217129
237.044901,0.217169
237.357196,0.217210
237.669491,0.217251
237.981786,0.217292
238.294081,0.217334
238.606377,0.217376
238.918672,0.217418
239.230967,0.217460
239.543262,0.217502
239.855557,0.217545
240.167853,0.217588
240.480148,0.217632
240.792443,0.217676
241.104738,0.217719
241.417033,0.217764
241.729329,0.217808
242.041624,0.217853
242.353919,0.217898
242.666214,0.217943
242.978509,0.217989
243.290805,0.218035
243.603100,0.218081
243.915395,0.218128
244.227690,0.218175
244.539985,0.218222
244.852281,0.218269
245.164576,0.218317
245.476871,0.218365
245.789166,0.218414
246.101461,0.218463
246.413756,0.218512
246.726052,0.218561
247.038347,0.218611
247.350642,0.218661
247.662937,0.218711
247.975232,0.218762
248.287528,0.218813
248.599823,0.218864
248.912118,0.218916
249.224413,0.218968
249.536708,0.219021
249.849004,0.219073
250.161299,0.219127
250.473594,0.219180
250.785889,0.219234
251.098184,0.219288
251.410480,0.219343
251.722775,0.219398
252.035070,0.219453
252.347365,0.219509
252.659660,0.219565
252.971956,0.219622
253.284251,0.219679
253.596546,0.219736
253.908841,0.219794
254.221136,0.219852
254.533432,0.219910
254.845727,0.219969
255.158022,0.220029
255.470317,0.220088
255.782612,0.220149
256.094908,0.220209
256.407203,0.220270
256.719498,0.220332
257.031793,0.220394
257.344088,0.220456
257.656384,0.220519
257.968679,0.220582
258.280974,0.220646
258.593269,0.220710
258.905564,0.220774
259.217859,0.220839
259.530155,0.220905
259.842450,0.220971
260.154745,0.221037
260.467040,0.221104
260.779335,0.221172
261.091631,0.221240
261.403926,0.221308
261.716221,0.221377
262.028516,0.221447
262.340811,0.221517
262.653107,0.221587
262.965402,0.221658
263.277697,0.221730
263.589992,0.221802
263.902287,0.221874
264.214583,0.221948
264.526878,0.222021
264.839173,0.222096
265.151468,0.222170
265.463763,0.222246
265.776059,0.222322
266.088354,0.222398
266.400649,0.222475
266.712944,0.222553
267.025239,0.222631
267.337535,0.222710
267.649830,0.222789
267.962125,0.222869
268.274420,0.222950
268.586715,0.223031
268.899011,0.223113
269.211306,0.223196
269.523601,0.223279
269.835896,0.223363
270.148191,0.223447
270.460487,0.223532
270.772782,0.223618
271.085077,0.223704
271.397372,0.223792
271.709667,0.223879
272.021962,0.223968
272.334258,0.224057
272.646553,0.224147
272.958848,0.224237
273.271143,0.224329
273.583438,0.224421
273.895734,0.224513
274.208029,0.224607
274.520324,0.224701
274.832619,0.224796
275.144914,0.224892
275.457210,0.224988
275.769505,0.225086
276.081800,0.225184
276.394095,0.225282
276.706390,0.225382
277.018686,0.225482
277.330981,0.225584
277.643276,0.225686
277.955571,0.225789
278.267866,0.225892
278.580162,0.225997
278.892457,0.226102
279.204752,0.226208
279.517047,0.226316
279.829342,0.226424
280.141638,0.226532
280.453933,0.226642
280.766228,0.226753
281.078523,0.226864
281.390818,0.226977
281.703114,0.227090
282.015409,0.227205
282.327704,0.227320
282.639999,0.227436
282.952294,0.227554
283.264590,0.227672
283.576885,0.227791
283.889180,0.227911
284.201475,0.228032
284.513770,0.228155
284.826065,0.228278
285.138361,0.228402
285.450656,0.228527
285.762951,0.228654
286.075246,0.228781
286.387541,0.228909
286.699837,0.229039
287.012132,0.229170
287.324427,0.229301
287.636722,0.229434
287.949017,0.229568
288.261313,0.229703
288.573608,0.229840
288.885903,0.229977
289.198198,0.230116
289.510493,0.230255
289.822789,0.230396
290.135084,0.230539
290.447379,0.230682
290.759674,0.230826
291.071969,0.230972
291.384265,0.231119
291.696560,0.231268
292.008855,0.231417
292.321150,0.231568
292.633445,0.231720
292.945741,0.231874
293.258036,0.232028
293.570331,0.232185
293.882626,0.232342
294.194921,0.232501
294.507217,0.232661
294.819512,0.232822
295.131807,0.232985
295.444102,0.233149
295.756397,0.233315
296.068693,0.233482
296.380988,0.233651
296.693283,0.233821
297.005578,0.233992
297.317873,0.234165
297.630168,0.234339
297.942464,0.234515
298.254759,0.234693
298.567054,0.234872
298.879349,0.235052
299.191644,0.235234
299.503940,0.235417
299.816235,0.235602
300.128530,0.235789
300.440825,0.235977
300.753120,0.236167
301.065416,0.236358
301.377711,0.236551
301.690006,0.236746
302.002301,0.236942
302.314596,0.237140
302.626892,0.237340
302.939187,0.237541
303.251482,0.237744
303.563777,0.237949
303.876072,0.238155
304.188368,0.238363
304.500663,0.238573
304.812958,0.238785
305.125253,0.238998
305.437548,0.239213
305.749844,0.239430
306.062139,0.239648
306.374434,0.239868
306.686729,0.240091
306.999024,0.240315
307.311320,0.240540
307.623615,0.240768
307.935910,0.240997
308.248205,0.241228
308.560500,0.241461
308.872796,0.241696
309.185091,0.241933
309.497386,0.242171
309.809681,0.242412
310.121976,0.242654
310.434271,0.242898
310.746567,0.243144
311.058862,0.243392
311.371157,0.243641
311.683452,0.243893
311.995747,0.244146
312.308043,0.244402
312.620338,0.244659
312.932633,0.244918
313.244928,0.245179
313.557223,0.245442
313.869519,0.245706
314.181814,0.245973
314.494109,0.246241
314.806404,0.246511
315.118699,0.246783
315.430995,0.247057
315.743290,0.247333
316.055585,0.247610
316.367880,0.247890
316.680175,0.248171
316.992471,0.248454
317.304766,0.248738
317.617061,0.249025
317.929356,0.249313
318.241651,0.249603
318.553947,0.249895
318.866242,0.250188
319.178537,0.250483
319.490832,0.250780
319.803127,0.251078
320.115423,0.251378
320.427718,0.251679
320.740013,0.251982
321.052308,0.252287
321.364603,0.252593
321.676899,0.252900
321.989194,0.253209
322.301489,0.253520
322.613784,0.253831
322.926079,0.254144
323.238375,0.254459
323.550670,0.254774
323.862965,0.255091
324.175260,0.255409
324.487555,0.255728
324.799850,0.256048
325.112146,0.256370
325.424441,0.256692
325.736736,0.257015
326.049031,0.257339
326.361326,0.257664
326.673622,0.257989
326.985917,0.258316
327.298212,0.258643
327.610507,0.258970
327.922802,0.259298
328.235098,0.259627
328.547393,0.259956
328.859688,0.260285
329.171983,0.260615
329.484278,0.260944
329.796574,0.261274
330.108869,0.261604
330.421164,0.261934
330.733459,0.262264
331.045754,0.262593
331.358050,0.262922
331.670345,0.263251
331.982640,0.263580
332.294935,0.263908
332.607230,0.264235
332.919526,0.264561
333.231821,0.264887
333.544116,0.265212
333.856411,0.265536
334.168706,0.265859
334.481002,0.266181
334.793297,0.266501
335.105592,0.266820
335.417887,0.267138
335.730182,0.267454
336.042478,0.267769
336.354773,0.268082
336.667068,0.268393
336.979363,0.268702
337.291658,0.269009
337.603953,0.269314
337.916249,0.269616
338.228544,0.269917
338.540839,0.270215
338.853134,0.270510
339.165429,0.270803
339.477725,0.271093
339.790020,0.271381
340.102315,0.271665
340.414610,0.271947
340.726905,0.272226
341.039201,0.272501
341.351496,0.272773
341.663791,0.273042
341.976086,0.273308
342.288381,0.273570
342.600677,0.273829
342.912972,0.274084
343.225267,0.274335
343.537562,0.274582
343.849857,0.274826
344.162153,0.275066
344.474448,0.275302
344.786743,0.275534
345.099038,0.275762
345.411333,0.275985
345.723629,0.276205
346.035924,0.276421
346.348219,0.276632
346.660514,0.276839
346.972809,0.277041
347.285105,0.277240
347.597400,0.277434
347.909695,0.277624
348.221990,0.277809
348.534285,0.277990
348.846581,0.278166
349.158876,0.278338
349.471171,0.278506
349.783466,0.278670
350.095761,0.278829
350.408056,0.278983
350.720352,0.279134
351.032647,0.279280
351.344942,0.279421
351.657237,0.279559
351.969532,0.279692
352.281828,0.279822
352.594123,0.279947
352.906418,0.280068
353.218713,0.280185
353.531008,0.280298
353.843304,0.280407
354.155599,0.280513
354.467894,0.280614
354.780189,0.280713
355.092484,0.280807
355.404780,0.280898
355.717075,0.280986
356.029370,0.281070
356.341665,0.281151
356.653960,0.281229
356.966256,0.281304
357.278551,0.281377
357.590846,0.281446
357.903141,0.281513
358.215436,0.281577
358.527732,0.281638
358.840027,0.281698
359.152322,0.281755
359.464617,0.281810
359.776912,0.281863
360.089208,0.281914
360.401503,0.281963
360.713798,0.282011
361.026093,0.282058
361.338388,0.282103
361.650684,0.282147
361.962979,0.282189
362.275274,0.282231
362.587569,0.282272
362.899864,0.282313
363.212159,0.282353
363.524455,0.282392
363.836750,0.282432
364.149045,0.282471
364.461340,0.282510
364.773635,0.282549
365.085931,0.282589
365.398226,0.282629
365.710521,0.282669
366.022816,0.282711
366.335111,0.282753
366.647407,0.282796
366.959702,0.282840
367.271997,0.282886
367.584292,0.282932
367.896587,0.282981
368.208883,0.283031
368.521178,0.283082
368.833473,0.283136
369.145768,0.283191
369.458063,0.283249
369.770359,0.283309
370.082654,0.283371
