# rshift,intensity
59.076973,0.046816
59.379816,0.046821
59.682659,0.046826
59.985502,0.046831
60.288345,0.046836
60.591188,0.046841
60.894030,0.046846
61.196873,0.046851
61.499716,0.046856
61.802559,0.046861
62.105402,0.046866
62.408245,0.046871
62.711088,0.046876
63.013931,0.046881
63.316774,0.046886
63.619617,0.046891
63.922460,0.046896
64.225303,0.046901
64.528146,0.046906
64.830988,0.046911
65.133831,0.046916
65.436674,0.046921
65.739517,0.046926
66.042360,0.046932
66.345203,0.046937
66.648046,0.046942
66.950889,0.046947
67.253732,0.046952
67.556575,0.046957
67.859418,0.046963
68.162261,0.046968
68.465104,0.046973
68.767946,0.046978
69.070789,0.046984
69.373632,0.046989
69.676475,0.046994
69.979318,0.047000
70.282161,0.047005
70.585004,0.047010
70.887847,0.047016
71.190690,0.047021
71.493533,0.047026
71.796376,0.047032
72.099219,0.047037
72.402062,0.047043
72.704905,0.047048
73.007747,0.047053
73.310590,0.047059
73.613433,0.047064
73.916276,0.047070
74.219119,0.047075
74.521962,0.047081
74.824805,0.047086
75.127648,0.047092
75.430491,0.047098
75.733334,0.047103
76.036177,0.047109
76.339020,0.047114
76.641863,0.047120
76.944705,0.047126
77.247548,0.047131
77.550391,0.047137
77.853234,0.047143
78.156077,0.047148
78.458920,0.047154
78.761763,0.047160
79.064606,0.047165
79.367449,0.047171
79.670292,0.047177
79.973135,0.047183
80.275978,0.047188
80.578821,0.047194
80.881663,0.047200
81.184506,0.047206
81.487349,0.047212
81.790192,0.047218
82.093035,0.047223
82.395878,0.047229
82.698721,0.047235
83.001564,0.047241
83.304407,0.047247
83.607250,0.047253
83.910093,0.047259
84.212936,0.047265
84.515779,0.047271
84.818621,0.047277
85.121464,0.047283
85.424307,0.047289
85.727150,0.047295
86.029993,0.047301
86.332836,0.047307
86.635679,0.047314
86.938522,0.047320
87.241365,0.047326
87.544208,0.047332
87.847051,0.047338
88.149894,0.047344
88.452737,0.047351
88.755579,0.047357
89.058422,0.047363
89.361265,0.047369
89.664108,0.047376
89.966951,0.047382
90.269794,0.047388
90.572637,0.047394
90.875480,0.047401
91.178323,0.047407
91.481166,0.047414
91.784009,0.047420
92.086852,0.047426
92.389695,0.047433
92.692537,0.047439
92.995380,0.047446
93.298223,0.047452
93.601066,0.047459
93.903909,0.047465
94.206752,0.047472
94.509595,0.047478
94.812438,0.047485
95.115281,0.047491
95.418124,0.047498
95.720967,0.047505
96.023810,0.047511
96.326653,0.047518
96.629495,0.047525
96.932338,0.047531
97.235181,0.047538
97.538024,0.047545
97.840867,0.047551
98.143710,0.047558
98.446553,0.047565
98.749396,0.047572
99.052239,0.047579
99.355082,0.047585
99.657925,0.047592
99.960768,0.047599
100.263611,0.047606
100.566454,0.047613
100.869296,0.047620
101.172139,0.047627
101.474982,0.047634
101.777825,0.047641
102.080668,0.047648
102.383511,0.047655
102.686354,0.047662
102.989197,0.047669
103.292040,0.047676
103.594883,0.047683
103.897726,0.047690
104.200569,0.047697
104.503412,0.047705
104.806254,0.047712
105.109097,0.047719
105.411940,0.047726
105.714783,0.047734
106.017626,0.047741
106.320469,0.047748
106.623312,0.047755
106.926155,0.047763
107.228998,0.047770
107.531841,0.047777
107.834684,0.047785
108.137527,0.047792
108.440370,0.047800
108.743212,0.047807
109.046055,0.047815
109.348898,0.047822
109.651741,0.047830
109.954584,0.047837
110.257427,0.047845
110.560270,0.047852
110.863113,0.047860
111.165956,0.047867
111.468799,0.047875
111.771642,0.047883
112.074485,0.047890
112.377328,0.047898
112.680170,0.047906
112.983013,0.047914
113.285856,0.047921
113.588699,0.047929
113.891542,0.047937
114.194385,0.047945
114.497228,0.047953
114.800071,0.047961
115.102914,0.047969
115.405757,0.047976
115.708600,0.047984
116.011443,0.047992
116.314286,0.048000
116.617128,0.048008
116.919971,0.048016
117.222814,0.048025
117.525657,0.048033
117.828500,0.048041
118.131343,0.048049
118.434186,0.048057
118.737029,0.048065
119.039872,0.048073
119.342715,0.048082
119.645558,0.048090
119.948401,0.048098
120.251244,0.048106
120.554086,0.048115
120.856929,0.048123
121.159772,0.048132
121.462615,0.048140
121.765458,0.048148
122.068301,0.048157
122.371144,0.048165
122.673987,0.048174
122.976830,0.048182
123.279673,0.048191
123.582516,0.048199
123.885359,0.048208
124.188202,0.048217
124.491045,0.048225
124.793887,0.048234
125.096730,0.048243
125.399573,0.048252
125.702416,0.048260
126.005259,0.048269
126.308102,0.048278
126.610945,0.048287
126.913788,0.048296
127.216631,0.048304
127.519474,0.048313
127.822317,0.048322
128.125160,0.048331
128.428003,0.048340
128.730845,0.048349
129.033688,0.048358
129.336531,0.048367
129.639374,0.048377
129.942217,0.048386
130.245060,0.048395
130.547903,0.048404
130.850746,0.048413
131.153589,0.048423
131.456432,0.048432
131.759275,0.048441
132.062118,0.048450
132.364961,0.048460
132.667803,0.048469
132.970646,0.048479
133.273489,0.048488
133.576332,0.048498
133.879175,0.048507
134.182018,0.048517
134.484861,0.048526
134.787704,0.048536
135.090547,0.048545
135.393390,0.048555
135.696233,0.048565
135.999076,0.048574
136.301919,0.048584
136.604761,0.048594
136.907604,0.048604
137.210447,0.048614
137.513290,0.048623
137.816133,0.048633
138.118976,0.048643
138.421819,0.048653
138.724662,0.048663
139.027505,0.048673
139.330348,0.048683
139.633191,0.048693
139.936034,0.048703
140.238877,0.048714
140.541719,0.048724
140.844562,0.048734
141.147405,0.048744
141.450248,0.048754
141.753091,0.048765
142.055934,0.048775
142.358777,0.048786
142.661620,0.048796
142.964463,0.048806
143.267306,0.048817
143.570149,0.048827
143.872992,0.048838
144.175835,0.048848
144.478677,0.048859
144.781520,0.048870
145.084363,0.048880
145.387206,0.048891
145.690049,0.048902
145.992892,0.048913
146.295735,0.048923
146.598578,0.048934
146.901421,0.048945
147.204264,0.048956
147.507107,0.048967
147.809950,0.048978
148.112793,0.048989
148.415635,0.049000
148.718478,0.049011
149.021321,0.049022
149.324164,0.049033
149.627007,0.049045
149.929850,0.049056
150.232693,0.049067
150.535536,0.049078
150.838379,0.049090
151.141222,0.049101
151.444065,0.049113
151.746908,0.049124
152.049751,0.049136
152.352594,0.049147
152.655436,0.049159
152.958279,0.049170
153.261122,0.049182
153.563965,0.049194
153.866808,0.049205
154.169651,0.049217
154.472494,0.049229
154.775337,0.049241
155.078180,0.049253
155.381023,0.049265
155.683866,0.049277
155.986709,0.049289
156.289552,0.049301
156.592394,0.049313
156.895237,0.049325
157.198080,0.049337
157.500923,0.049349
157.803766,0.049362
158.106609,0.049374
158.409452,0.049386
158.712295,0.049399
159.015138,0.049411
159.317981,0.049423
159.620824,0.049436
159.923667,0.049448
160.226510,0.049461
160.529352,0.049474
160.832195,0.049486
161.135038,0.049499
161.437881,0.049512
161.740724,0.049525
162.043567,0.049538
162.346410,0.049550
162.649253,0.049563
162.952096,0.049576
163.254939,0.049589
163.557782,0.049602
163.860625,0.049616
164.163468,0.049629
164.466310,0.049642
164.769153,0.049655
165.071996,0.049668
165.374839,0.049682
165.677682,0.049695
165.980525,0.049709
166.283368,0.049722
166.586211,0.049736
166.889054,0.049749
167.191897,0.049763
167.494740,0.049777
167.797583,0.049790
168.100426,0.049804
168.403268,0.049818
168.706111,0.049832
169.008954,0.049846
169.311797,0.049860
169.614640,0.049874
169.917483,0.049888
170.220326,0.049902
170.523169,0.049916
170.826012,0.049930
171.128855,0.049945
171.431698,0.049959
171.734541,0.049973
172.037384,0.049988
172.340226,0.050002
172.643069,0.050017
172.945912,0.050031
173.248755,0.050046
173.551598,0.050061
173.854441,0.050075
174.157284,0.050090
174.460127,0.050105
174.762970,0.050120
175.065813,0.050135
175.368656,0.050150
175.671499,0.050165
175.974342,0.050180
176.277185,0.050195
176.580027,0.050210
176.882870,0.050226
177.185713,0.050241
177.488556,0.050256
177.791399,0.050272
178.094242,0.050287
178.397085,0.050303
178.699928,0.050319
179.002771,0.050334
179.305614,0.050350
179.608457,0.050366
179.911300,0.050382
180.214143,0.050398
180.516985,0.050414
180.819828,0.050430
181.122671,0.050446
181.425514,0.050462
181.728357,0.050478
182.031200,0.050494
182.334043,0.050511
182.636886,0.050527
182.939729,0.050544
183.242572,0.050560
183.545415,0.050577
183.848258,0.050593
184.151101,0.050610
184.453943,0.050627
184.756786,0.050644
185.059629,0.050661
185.362472,0.050678
185.665315,0.050695
185.968158,0.050712
186.271001,0.050729
186.573844,0.050746
186.876687,0.050763
187.179530,0.050781
187.482373,0.050798
187.785216,0.050816
188.088059,0.050833
188.390901,0.050851
188.693744,0.050869
188.996587,0.050886
189.299430,0.050904
189.602273,0.050922
189.905116,0.050940
190.207959,0.050958
190.510802,0.050976
190.813645,0.050995
191.116488,0.051013
191.419331,0.051031
191.722174,0.051050
192.025017,0.051068
192.327859,0.051087
192.630702,0.051105
192.933545,0.051124
193.236388,0.051143
193.539231,0.051162
193.842074,0.051180
194.144917,0.051199
194.447760,0.051219
194.750603,0.051238
195.053446,0.051257
195.356289,0.051276
195.659132,0.051296
195.961975,0.051315
196.264817,0.051335
196.567660,0.051354
196.870503,0.051374
197.173346,0.051394
197.476189,0.051414
197.779032,0.051433
198.081875,0.051453
198.384718,0.051474
198.687561,0.051494
198.990404,0.051514
199.293247,0.051534
199.596090,0.051555
199.898933,0.051575
200.201775,0.051596
200.504618,0.051617
200.807461,0.051637
201.110304,0.051658
201.413147,0.051679
201.715990,0.051700
202.018833,0.051721
202.321676,0.051743
202.624519,0.051764
202.927362,0.051785
203.230205,0.051807
203.533048,0.051828
203.835891,0.051850
204.138734,0.051872
204.441576,0.051893
204.744419,0.051915
205.047262,0.051937
205.350105,0.051959
205.652948,0.051982
205.955791,0.052004
206.258634,0.052026
206.561477,0.052049
206.864320,0.052071
207.167163,0.052094
207.470006,0.052117
207.772849,0.052140
208.075692,0.052163
208.378534,0.052186
208.681377,0.052209
208.984220,0.052232
209.287063,0.052256
209.589906,0.052279
209.892749,0.052303
210.195592,0.052326
210.498435,0.052350
210.801278,0.052374
211.104121,0.052398
211.406964,0.052422
211.709807,0.052446
212.012650,0.052471
212.315492,0.052495
212.618335,0.052519
212.921178,0.052544
213.224021,0.052569
213.526864,0.052594
213.829707,0.052619
214.132550,0.052644
214.435393,0.052669
214.738236,0.052694
215.041079,0.052720
215.343922,0.052745
215.646765,0.052771
215.949608,0.052796
216.252450,0.052822
216.555293,0.052848
216.858136,0.052874
217.160979,0.052901
217.463822,0.052927
217.766665,0.052953
218.069508,0.052980
218.372351,0.053007
218.675194,0.053033
218.978037,0.053060
219.280880,0.053087
219.583723,0.053115
219.886566,0.053142
220.189408,0.053169
220.492251,0.053197
220.795094,0.053225
221.097937,0.053252
221.400780,0.053280
221.703623,0.053308
222.006466,0.053337
222.309309,0.053365
222.612152,0.053393
222.914995,0.053422
223.217838,0.053451
223.520681,0.053480
223.823524,0.053509
224.126366,0.053538
224.429209,0.053567
224.732052,0.053596
225.034895,0.053626
225.337738,0.053656
225.640581,0.053685
225.943424,0.053715
226.246267,0.053746
226.549110,0.053776
226.851953,0.053806
227.154796,0.053837
227.457639,0.053867
227.760482,0.053898
228.063325,0.053929
228.366167,0.053960
228.669010,0.053992
228.971853,0.054023
229.274696,0.054055
229.577539,0.054087
229.880382,0.054119
230.183225,0.054151
230.486068,0.054183
230.788911,0.054215
231.091754,0.054248
231.394597,0.054280
231.697440,0.054313
232.000283,0.054346
232.303125,0.054380
232.605968,0.054413
232.908811,0.054446
233.211654,0.054480
233.514497,0.054514
233.817340,0.054548
234.120183,0.054582
234.423026,0.054617
234.725869,0.054651
235.028712,0.054686
235.331555,0.054721
235.634398,0.054756
235.937241,0.054791
236.240083,0.054827
236.542926,0.054862
236.845769,0.054898
237.148612,0.054934
237.451455,0.054970
237.754298,0.055007
238.057141,0.055043
238.359984,0.055080
238.662827,0.055117
238.965670,0.055154
239.268513,0.055191
239.571356,0.055229
239.874199,0.055266
240.177041,0.055304
240.479884,0.055343
240.782727,0.055381
241.085570,0.055419
241.388413,0.055458
241.691256,0.055497
241.994099,0.055536
242.296942,0.055575
242.599785,0.055615
242.902628,0.055655
243.205471,0.055695
243.508314,0.055735
243.811157,0.055775
244.113999,0.055816
244.416842,0.055857
244.719685,0.055898
245.022528,0.055939
245.325371,0.055981
245.628214,0.056022
245.931057,0.056064
246.233900,0.056107
246.536743,0.056149
246.839586,0.056192
247.142429,0.056235
247.445272,0.056278
247.748115,0.056321
248.050957,0.056365
248.353800,0.056409
248.656643,0.056453
248.959486,0.056497
249.262329,0.056542
249.565172,0.056586
249.868015,0.056632
250.170858,0.056677
250.473701,0.056723
250.776544,0.056768
251.079387,0.056815
251.382230,0.056861
251.685073,0.056908
251.987915,0.056955
252.290758,0.057002
252.593601,0.057049
252.896444,0.057097
253.199287,0.057145
253.502130,0.057193
253.804973,0.057242
254.107816,0.057291
254.410659,0.057340
254.713502,0.057390
255.016345,0.057439
255.319188,0.057489
255.622031,0.057540
255.924874,0.057590
256.227716,0.057641
256.530559,0.057693
256.833402,0.057744
257.136245,0.057796
257.439088,0.057848
257.741931,0.057901
258.044774,0.057954
258.347617,0.058007
258.650460,0.058060
258.953303,0.058114
259.256146,0.058168
259.558989,0.058222
259.861832,0.058277
260.164674,0.058332
260.467517,0.058388
260.770360,0.058444
261.073203,0.058500
261.376046,0.058556
261.678889,0.058613
261.981732,0.058670
262.284575,0.058728
262.587418,0.058786
262.890261,0.058844
263.193104,0.058903
263.495947,0.058962
263.798790,0.059021
264.101632,0.059081
264.404475,0.059141
264.707318,0.059202
265.010161,0.059263
265.313004,0.059324
265.615847,0.059386
265.918690,0.059448
266.221533,0.059511
266.524376,0.059574
266.827219,0.059637
267.130062,0.059701
267.432905,0.059765
267.735748,0.059830
268.038590,0.059895
268.341433,0.059960
268.644276,0.060026
268.947119,0.060093
269.249962,0.060159
269.552805,0.060227
269.855648,0.060295
270.158491,0.060363
270.461334,0.060431
270.764177,0.060501
271.067020,0.060570
271.369863,0.060640
271.672706,0.060711
271.975548,0.060782
272.278391,0.060853
272.581234,0.060926
272.884077,0.060998
273.186920,0.061071
273.489763,0.061145
273.792606,0.061219
274.095449,0.061294
274.398292,0.061369
274.701135,0.061444
275.003978,0.061521
275.306821,0.061597
275.609664,0.061675
275.912506,0.061753
276.215349,0.061831
276.518192,0.061910
276.821035,0.061990
277.123878,0.062070
277.426721,0.062151
277.729564,0.062232
278.032407,0.062314
278.335250,0.062397
278.638093,0.062480
278.940936,0.062564
279.243779,0.062648
279.546622,0.062733
279.849464,0.062819
280.152307,0.062905
280.455150,0.062992
280.757993,0.063080
281.060836,0.063168
281.363679,0.063257
281.666522,0.063347
281.969365,0.063438
282.272208,0.063529
282.575051,0.063621
282.877894,0.063713
283.180737,0.063806
283.483580,0.063900
283.786423,0.063995
284.089265,0.064091
284.392108,0.064187
284.694951,0.064284
284.997794,0.064382
285.300637,0.064481
285.603480,0.064580
285.906323,0.064680
286.209166,0.064781
286.512009,0.064883
286.814852,0.064986
287.117695,0.065089
287.420538,0.065194
287.723381,0.065299
288.026223,0.065405
288.329066,0.065512
288.631909,0.065620
288.934752,0.065729
289.237595,0.065839
289.540438,0.065950
289.843281,0.066062
290.146124,0.066174
290.448967,0.066288
290.751810,0.066402
291.054653,0.066518
291.357496,0.066635
291.660339,0.066752
291.963181,0.066871
292.266024,0.066991
292.568867,0.067112
292.871710,0.067234
293.174553,0.067357
293.477396,0.067481
293.780239,0.067606
294.083082,0.067732
294.385925,0.067860
294.688768,0.067988
294.991611,0.068118
295.294454,0.068249
295.597297,0.068382
295.900139,0.068515
296.202982,0.068650
296.505825,0.068786
296.808668,0.068923
297.111511,0.069062
297.414354,0.069202
297.717197,0.069343
298.020040,0.069486
298.322883,0.069630
298.625726,0.069775
298.928569,0.069922
299.231412,0.070071
299.534255,0.070220
299.837097,0.070372
300.139940,0.070524
300.442783,0.070679
300.745626,0.070835
301.048469,0.070992
301.351312,0.071151
301.654155,0.071312
301.956998,0.071474
302.259841,0.071638
302.562684,0.071804
302.865527,0.071971
303.168370,0.072140
303.471213,0.072311
303.774055,0.072484
304.076898,0.072659
304.379741,0.072835
304.682584,0.073013
304.985427,0.073194
305.288270,0.073376
305.591113,0.073560
305.893956,0.073746
306.196799,0.073935
306.499642,0.074125
306.802485,0.074317
307.105328,0.074512
307.408171,0.074709
307.711014,0.074908
308.013856,0.075109
308.316699,0.075313
308.619542,0.075519
308.922385,0.075727
309.225228,0.075937
309.528071,0.076151
309.830914,0.076366
310.133757,0.076584
310.436600,0.076805
310.739443,0.077029
311.042286,0.077255
311.345129,0.077483
311.647972,0.077715
311.950814,0.077949
312.253657,0.078186
312.556500,0.078427
312.859343,0.078670
313.162186,0.078916
313.465029,0.079165
313.767872,0.079417
314.070715,0.079673
314.373558,0.079931
314.676401,0.080193
314.979244,0.080459
315.282087,0.080727
315.584930,0.081000
315.887772,0.081275
316.190615,0.081555
316.493458,0.081838
316.796301,0.082125
317.099144,0.082415
317.401987,0.082710
317.704830,0.083008
318.007673,0.083311
318.310516,0.083617
318.613359,0.083928
318.916202,0.084243
319.219045,0.084562
319.521888,0.084886
319.824730,0.085214
320.127573,0.085547
320.430416,0.085884
320.733259,0.086227
321.036102,0.086574
321.338945,0.086926
321.641788,0.087283
321.944631,0.087645
322.247474,0.088012
322.550317,0.088385
322.853160,0.088763
323.156003,0.089146
323.458846,0.089536
323.761688,0.089931
324.064531,0.090331
324.367374,0.090738
324.670217,0.091151
324.973060,0.091570
325.275903,0.091995
325.578746,0.092427
325.881589,0.092865
326.184432,0.093310
326.487275,0.093761
326.790118,0.094220
327.092961,0.094685
327.395804,0.095157
327.698646,0.095637
328.001489,0.096124
328.304332,0.096619
328.607175,0.097121
328.910018,0.097631
329.212861,0.098149
329.515704,0.098675
329.818547,0.099209
330.121390,0.099751
330.424233,0.100302
330.727076,0.100861
331.029919,0.101429
331.332762,0.102006
331.635604,0.102592
331.938447,0.103186
332.241290,0.103790
332.544133,0.104403
332.846976,0.105026
333.149819,0.105658
333.452662,0.106299
333.755505,0.106950
334.058348,0.107612
334.361191,0.108282
334.664034,0.108963
334.966877,0.109654
335.269720,0.110355
335.572563,0.111067
335.875405,0.111788
336.178248,0.112520
336.481091,0.113262
336.783934,0.114014
337.086777,0.114777
337.389620,0.115550
337.692463,0.116333
337.995306,0.117126
338.298149,0.117930
338.600992,0.118743
338.903835,0.119567
339.206678,0.120400
339.509521,0.121243
339.812363,0.122095
340.115206,0.122957
340.418049,0.123827
340.720892,0.124707
341.023735,0.125594
341.326578,0.126490
341.629421,0.127394
341.932264,0.128305
342.235107,0.129222
342.537950,0.130146
342.840793,0.131076
343.143636,0.132012
343.446479,0.132952
343.749321,0.133896
344.052164,0.134843
344.355007,0.135793
344.657850,0.136745
344.960693,0.137697
345.263536,0.138650
345.566379,0.139602
345.869222,0.140553
346.172065,0.141500
346.474908,0.142444
346.777751,0.143383
347.080594,0.144315
347.383437,0.145241
347.686279,0.146158
347.989122,0.147066
348.291965,0.147962
348.594808,0.148847
348.897651,0.149718
349.200494,0.150575
349.503337,0.151416
349.806180,0.152239
350.109023,0.153045
350.411866,0.153830
350.714709,0.154594
351.017552,0.155337
351.320395,0.156056
351.623237,0.156750
351.926080,0.157419
352.228923,0.158061
352.531766,0.158676
352.834609,0.159263
353.137452,0.159820
353.440295,0.160348
353.743138,0.160845
354.045981,0.161311
354.348824,0.161746
354.651667,0.162149
354.954510,0.162519
355.257353,0.162858
355.560195,0.163164
355.863038,0.163439
356.165881,0.163681
356.468724,0.163892
356.771567,0.164072
357.074410,0.164221
357.377253,0.164340
357.680096,0.164429
357.982939,0.164491
358.285782,0.164524
358.588625,0.164530
358.891468,0.164511
359.194311,0.164467
359.497154,0.164400
359.799996,0.164310
360.102839,0.164199
360.405682,0.164069
360.708525,0.163919
361.011368,0.163753
361.314211,0.163570
361.617054,0.163373
361.919897,0.163163
362.222740,0.162940
362.525583,0.162708
362.828426,0.162465
363.131269,0.162215
